1559241106.00
64.000000
-0.00
-0.00
-0.00
-0.00
-0.00
-0.00
-0.00
-0.00
-0.00
-0.00
0.00
0.01
0.01
-0.00
-0.03
-0.05
-0.05
0.00
0.13
0.36
0.66
1.01
1.37
1.72
2.06
2.40
2.79
3.24
3.80
4.42
5.06
5.67
6.22
6.71
7.20
7.78
8.48
9.41
10.50
11.63
12.69
13.63
14.50
15.44
16.68
18.37
20.72
23.55
26.59
29.54
32.24
34.77
37.42
40.64
44.77
50.18
56.53
63.32
69.95
76.08
81.76
87.48
93.96
101.75
111.41
122.47
134.15
145.55
156.10
165.82
175.31
185.95
196.47
209.20
224.78
243.33
263.64
282.78
296.37
299.71
289.47
264.84
228.26
183.65
135.36
86.62
38.94
-7.52
-52.97
-97.10
-139.05
-177.30
-210.98
-239.57
-262.81
-280.38
-291.66
-296.34
-294.06
-285.00
-269.77
-249.87
-227.13
-203.34
-179.92
-157.71
-136.94
-117.38
-98.75
-80.86
-63.96
-48.55
-35.22
-23.98
-14.77
-7.32
-1.17
4.08
8.75
12.92
16.53
19.49
21.75
23.24
24.05
24.34
24.28
23.99
23.53
22.91
22.11
21.14
19.96
18.56
16.98
15.27
13.46
11.61
9.73
7.87
6.07
4.32
2.61
0.98
-0.56
-1.99
-3.27
-4.35
-5.21
-5.81
-6.14
-6.21
-6.04
-5.68
-5.16
-4.55
-3.91
-3.29
-2.73
-2.29
-1.98
-1.81
-1.80
-1.91
-2.14
-2.44
-2.80
-3.18
-3.58
-3.99
-4.39
-4.79
-5.19
-5.57
-5.94
-6.29
-6.64
-7.02
-7.44
-7.93
-8.46
-9.01
-9.55
-10.03
-10.44
-10.80
-11.15
-11.54
-12.01
-12.59
-13.23
-13.90
-14.54
-15.13
-15.68
-16.29
-17.03
-17.98
-19.11
-20.34
-21.51
-22.50
-23.26
-23.90
-24.64
-25.72
-27.31
-29.40
-31.78
-34.12
-36.12
-37.68
-39.00
-40.53
-42.82
-46.25
-50.84
-56.23
-61.78
-66.89
-71.31
-75.33
-79.69
-85.31
-92.83
-102.30
-113.13
-124.31
-134.86
-144.24
-152.68
-161.07
-170.84
-183.50
-200.33
-221.81
-247.10
-273.91
-298.68
-317.39
-326.66
-324.91
-312.79
-293.00
-269.29
-245.27
-223.40
-204.56
-188.29
-173.40
-158.63
-143.22
-127.10
-110.83
-95.17
-80.63
-67.19
-54.20
-40.89
-26.91
-12.75
0.49
11.72
20.59
27.93
35.48
44.92
56.88
70.42
83.49
93.93
100.75
104.72
108.02
113.00
120.89
131.12
141.57
149.76
154.25
155.35
154.98
155.48
158.30
163.17
168.28
171.31
170.84
167.14
161.96
157.52
155.19
154.71
154.32
151.90
146.19
137.59
127.99
119.70
114.21
111.27
109.17
105.70
99.40
90.46
80.61
72.16
66.68
64.14
62.96
60.98
56.66
50.01
42.53
36.35
32.92
32.24
32.82
32.58
30.05
25.24
19.62
15.25
13.56
14.55
16.71
17.88
16.50
12.55
7.59
3.85
2.99
5.09
8.56
11.07
10.91
7.95
3.72
0.51
-0.02
2.21
5.64
8.02
7.73
4.73
0.55
-2.54
-2.88
-0.42
3.33
6.15
6.42
4.05
0.52
-1.98
-1.86
0.92
4.82
7.61
7.63
4.81
0.68
-2.51
-3.11
-0.96
2.50
5.13
5.31
2.97
-0.46
-2.83
-2.62
0.20
4.09
6.86
6.90
4.18
0.25
-2.68
-2.95
-0.47
3.28
6.08
6.29
3.78
-0.03
-2.94
-3.26
-0.81
2.96
5.81
6.02
3.35
-0.74
-3.94
-4.42
-1.89
2.23
5.61
6.39
4.20
0.37
-2.80
-3.47
-1.27
2.49
5.58
6.14
3.77
-0.26
-3.68
-4.64
-2.64
1.14
4.49
5.53
3.73
0.29
-2.71
-3.43
-1.40
2.23
5.32
6.08
4.07
0.41
-2.76
-3.60
-1.54
2.30
5.80
7.00
5.25
1.53
-2.07
-3.49
-1.99
1.53
4.96
6.26
4.61
0.87
-2.87
-4.58
-3.44
-0.33
2.72
3.76
2.09
-1.32
-4.32
-4.94
-2.53
1.75
5.59
6.85
4.83
0.69
-3.15
-4.49
-2.59
1.40
5.09
6.26
4.25
0.26
-3.33
-4.43
-2.45
1.36
4.62
5.28
2.84
-1.39
-5.01
-5.95
-3.60
0.77
4.79
6.32
4.62
0.75
-3.09
-4.76
-3.47
-0.13
3.24
4.67
3.37
0.14
-3.05
-4.30
-2.86
0.46
3.76
5.12
3.76
0.46
-2.78
-4.07
-2.60
0.78
4.05
5.19
3.41
-0.35
-3.98
-5.37
-3.67
0.25
4.25
6.16
5.05
1.72
-1.83
-3.51
-2.34
0.97
4.46
6.09
4.88
1.49
-2.14
-3.92
-2.82
0.48
3.98
5.50
3.97
0.05
-4.17
-6.40
-5.43
-1.90
2.14
4.36
3.49
0.12
-3.72
-5.71
-4.65
-1.15
2.74
4.67
3.47
-0.21
-4.22
-6.16
-4.78
-0.70
3.89
6.48
5.64
1.85
-2.74
-5.57
-5.07
-1.53
3.02
6.03
5.84
2.66
-1.61
-4.52
-4.46
-1.63
2.09
4.34
3.71
0.58
-3.08
-4.93
-3.70
0.05
4.20
6.42
5.47
1.95
-2.08
-4.25
-3.34
0.14
4.17
6.48
5.73
2.32
-1.89
-4.66
-4.60
-1.88
1.84
4.42
4.43
1.89
-1.69
-4.29
-4.52
-2.40
0.67
2.72
2.43
-0.04
-3.21
-5.06
-4.23
-0.92
3.22
5.98
5.84
2.92
-1.14
-4.06
-4.19
-1.51
2.42
5.34
5.61
3.12
-0.64
-3.44
-3.65
-1.15
2.59
5.38
5.57
2.98
-0.95
-4.00
-4.53
-2.32
1.20
3.83
3.84
1.05
-3.11
-6.34
-6.87
-4.45
-0.48
2.75
3.44
1.32
-2.20
-4.88
-4.96
-2.20
1.92
5.10
5.59
3.18
-0.63
-3.53
-3.75
-1.02
3.13
6.36
6.83
4.23
-0.03
-3.57
-4.48
-2.44
1.16
4.00
4.27
1.68
-2.30
-5.31
-5.50
-2.65
1.72
5.23
6.01
3.77
-0.04
-3.13
-3.71
-1.52
2.06
4.81
4.97
2.26
-1.90
-5.26
-5.96
-3.61
0.42
3.79
4.53
2.21
-1.81
-5.14
-5.76
-3.18
1.21
4.94
5.93
3.72
-0.33
-3.79
-4.57
-2.17
2.04
5.67
6.66
4.43
0.20
-3.74
-5.35
-4.02
-0.84
2.06
2.85
0.96
-2.47
-5.31
-5.73
-3.32
0.69
4.09
4.94
2.75
-1.27
-4.83
-5.94
-4.00
-0.11
3.54
4.95
3.46
0.10
-3.03
-4.03
-2.25
1.30
4.56
5.62
3.88
0.34
-2.95
-4.08
-2.40
1.06
4.22
5.14
3.21
-0.50
-3.79
-4.62
-2.31
1.95
5.85
7.19
5.22
1.05
-2.98
-4.62
-3.09
0.57
4.06
5.25
3.37
-0.46
-3.92
-4.86
-2.62
1.58
5.39
6.59
4.48
0.24
-3.75
-5.29
-3.59
0.32
4.17
5.79
4.28
0.52
-3.45
-5.56
-4.87
-2.05
1.05
2.51
1.44
-1.52
-4.57
-5.81
-4.32
-0.78
2.91
4.69
3.53
0.03
-3.85
-5.91
-4.96
-1.56
2.35
4.52
3.79
0.72
-2.70
-4.30
-3.04
0.32
3.71
5.02
3.37
-0.28
-3.76
-4.99
-3.18
0.65
4.32
5.73
4.07
0.28
-3.47
-5.06
-3.57
0.19
4.13
6.04
4.85
1.22
-2.77
-4.85
-3.84
-0.30
3.67
5.75
4.68
1.06
-3.04
-5.22
-4.20
-0.51
3.73
6.13
5.34
1.79
-2.54
-5.31
-5.14
-2.39
1.10
3.13
2.47
-0.47
-3.83
-5.41
-4.04
-0.31
3.72
5.72
4.43
0.49
-3.84
-6.06
-4.83
-0.83
3.64
5.94
4.70
0.59
-4.11
-6.81
-6.16
-2.73
1.33
3.66
3.08
0.20
-3.00
-4.40
-2.98
0.62
4.44
6.39
5.43
2.15
-1.57
-3.54
-2.55
0.85
4.68
6.64
5.43
1.58
-2.85
-5.37
-4.59
-1.01
3.33
6.03
5.70
2.77
-0.90
-3.12
-2.72
-0.11
2.98
4.54
3.45
0.12
-3.73
-6.02
-5.48
-2.39
1.54
4.07
3.74
0.73
-3.19
-5.68
-5.19
-1.89
2.31
4.97
4.50
1.15
-3.14
-5.89
-5.57
-2.42
1.60
4.12
3.70
0.68
-3.08
-5.30
-4.66
-1.52
2.26
4.53
4.08
1.33
-1.90
-3.47
-2.20
1.39
5.43
7.75
7.05
3.73
-0.41
-3.15
-3.18
-0.73
2.52
4.48
3.86
0.91
-2.66
-4.80
-4.23
-1.22
2.53
4.87
4.40
1.33
-2.67
-5.39
-5.31
-2.56
1.16
3.53
2.99
-0.28
-4.42
-6.91
-6.04
-2.00
3.14
6.64
6.69
3.44
-1.14
-4.38
-4.58
-1.96
1.61
3.75
3.06
-0.12
-3.92
-6.06
-5.18
-1.69
2.54
5.22
4.87
1.68
-2.56
-5.51
-5.55
-2.67
1.55
4.80
5.35
3.02
-0.71
-3.61
-4.00
-1.69
1.90
4.58
4.70
2.15
-1.57
-4.23
-4.20
-1.41
2.52
5.30
5.26
2.44
-1.55
-4.39
-4.42
-1.63
2.34
5.22
5.41
2.86
-0.89
-3.72
-4.04
-1.82
1.52
3.88
3.79
1.20
-2.41
-4.87
-4.62
-1.61
2.62
5.78
6.09
3.37
-0.84
-4.15
-4.70
-2.23
1.70
4.65
4.73
1.75
-2.58
-5.75
-5.89
-2.92
1.38
4.47
4.52
1.55
-2.67
-5.61
-5.43
-2.07
2.77
6.54
7.33
4.85
0.52
-3.27
-4.60
-3.02
0.20
2.90
3.27
0.93
-2.82
-5.76
-6.02
-3.29
1.01
4.51
5.27
2.88
-1.28
-4.76
-5.55
-3.17
1.01
4.62
5.60
3.48
-0.42
-3.80
-4.73
-2.79
0.77
3.77
4.45
2.47
-0.94
-3.68
-4.08
-1.76
2.07
5.29
6.11
4.07
0.30
-3.08
-4.11
-2.17
1.57
4.82
5.50
2.97
-1.50
-5.46
-6.62
-4.30
0.15
4.17
5.46
3.34
-0.90
-4.73
-5.93
-3.89
0.12
3.74
4.86
2.89
-0.97
-4.41
-5.43
-3.40
0.56
4.23
5.59
3.94
0.34
-3.05
-4.22
-2.50
1.11
4.42
5.41
3.36
-0.62
-4.36
-5.77
-4.08
-0.30
3.37
4.89
3.47
0.09
-3.18
-4.36
-2.74
0.69
3.83
4.72
2.74
-1.09
-4.58
-5.68
-3.72
0.20
3.82
5.05
3.14
-0.86
-4.65
-6.08
-4.38
-0.56
3.15
4.64
3.07
-0.59
-4.14
-5.50
-3.82
-0.02
3.76
5.39
3.99
0.43
-3.13
-4.52
-2.83
1.09
5.02
6.66
4.98
0.84
-3.52
-5.75
-4.71
-1.15
2.73
4.66
3.57
0.22
-3.29
-4.73
-3.08
0.83
4.81
6.60
5.12
1.17
-3.02
-5.03
-3.67
0.32
4.70
7.02
5.97
2.16
-2.26
-4.85
-4.31
-1.18
2.57
4.67
3.94
0.93
-2.39
-3.93
-2.67
0.73
4.27
5.78
4.24
0.36
-3.76
-5.89
-4.87
-1.36
2.52
4.43
3.15
-0.74
-5.18
-7.84
-7.37
-4.21
-0.25
2.32
2.29
0.01
-2.78
-4.07
-2.81
0.47
3.97
5.66
4.49
1.04
-2.77
-4.72
-3.66
-0.09
4.00
6.36
5.69
2.49
-1.30
-3.36
-2.44
1.00
4.96
7.10
6.09
2.40
-1.96
-4.64
-4.30
-1.36
2.21
4.08
2.93
-0.75
-4.93
-7.21
-6.19
-2.32
2.31
5.18
4.76
1.39
-2.97
-5.81
-5.58
-2.53
1.48
4.07
3.79
0.91
-2.69
-4.67
-3.65
-0.06
4.12
6.50
5.71
2.15
-2.20
-4.93
-4.64
-1.65
2.17
4.57
4.14
1.14
-2.65
-5.05
-4.68
-1.73
2.13
4.71
4.53
1.66
-2.33
-5.28
-5.66
-3.39
0.09
2.71
3.00
0.97
-1.96
-3.79
-3.14
-0.10
3.78
6.39
6.33
3.70
0.03
-2.53
-2.49
0.11
3.70
6.12
5.82
2.75
-1.54
-4.75
-5.20
-2.78
1.01
3.83
3.96
1.25
-2.74
-5.60
-5.62
-2.67
1.60
4.75
4.98
2.17
-2.01
-5.12
-5.40
-2.75
1.22
4.13
4.29
1.66
-2.13
-4.80
-4.74
-1.99
1.78
4.29
3.98
0.98
-3.06
-5.85
-5.88
-3.18
0.62
3.34
3.52
1.17
-2.22
-4.55
-4.32
-1.51
2.40
5.26
5.47
2.84
-1.20
-4.36
-4.84
-2.37
1.62
4.81
5.31
2.84
-1.08
-3.96
-3.88
-0.67
3.95
7.34
7.47
4.19
-0.68
-4.42
-4.99
-2.21
2.17
5.49
5.77
2.81
-1.63
-5.01
-5.40
-2.61
1.74
5.14
5.69
3.19
-0.89
-4.13
-4.70
-2.27
1.68
4.84
5.34
2.81
-1.36
-4.82
-5.60
-3.35
0.60
3.91
4.69
2.47
-1.40
-4.65
-5.42
-3.29
0.45
3.62
4.40
2.38
-1.23
-4.29
-5.07
-3.18
0.18
2.95
3.40
1.21
-2.31
-4.99
-5.05
-2.19
2.20
5.72
6.37
3.73
-0.79
-4.72
-5.90
-3.74
0.49
4.32
5.62
3.73
-0.18
-3.78
-5.02
-3.27
0.27
3.38
4.12
1.99
-1.78
-4.93
-5.52
-3.08
1.10
4.70
5.68
3.43
-0.86
-4.82
-6.29
-4.57
-0.72
2.99
4.39
2.73
-0.91
-4.25
-5.15
-2.88
1.43
5.42
6.86
4.99
0.90
-3.09
-4.79
-3.38
0.13
3.54
4.73
2.93
-0.88
-4.50
-5.80
-3.93
0.17
4.27
6.16
4.86
1.18
-2.75
-4.68
-3.57
-0.16
3.47
5.17
3.94
0.51
-3.01
-4.48
-2.94
0.77
4.50
6.08
4.52
0.71
-3.14
-4.77
-3.17
0.77
4.81
6.59
5.02
0.92
-3.44
-5.72
-4.77
-1.37
2.30
3.93
2.49
-1.22
-5.08
-6.82
-5.38
-1.51
2.67
4.93
4.13
0.92
-2.69
-4.43
-3.04
0.84
5.07
7.16
5.78
1.52
-3.31
-6.03
-5.21
-1.48
2.83
5.11
4.06
0.40
-3.50
-5.18
-3.63
0.20
3.94
5.30
3.40
-0.75
-4.88
-6.85
-5.86
-2.77
0.41
1.71
0.29
-3.12
-6.75
-8.81
-8.39
-6.02
-3.31
-2.07
-3.30
-6.61
-10.36
-12.59
-12.05
-9.00
-5.25
-3.09
-4.08
-8.08
-13.31
-17.34
-18.59
-17.27
-15.23
-14.84
-17.54
-23.00
-29.36
-34.41
-36.96
-37.51
-37.90
-40.12
-45.13
-52.27
-59.65
-65.38
-68.77
-70.70
-73.17
-78.07
-86.00
-95.91
-105.49
-112.69
-116.85
-119.19
-122.14
-127.93
-137.07
-147.74
-156.34
-158.79
-152.07
-135.32
-109.82
-78.20
-43.19
-6.59
31.21
70.26
110.66
151.98
192.74
230.64
262.91
287.13
301.88
307.00
303.23
291.88
274.33
251.91
225.96
198.02
169.84
143.06
118.86
97.62
79.08
62.57
47.43
33.35
20.50
9.22
-0.22
-7.97
-14.62
-20.88
-27.27
-33.76
-39.79
-44.56
-47.49
-48.67
-48.91
-49.45
-51.31
-54.83
-59.36
-63.50
-65.95
-65.98
-63.87
-60.75
-58.02
-56.88
-58.23
-62.57
-69.72
-78.22
-84.86
-84.96
-73.98
-49.83
-14.60
25.50
62.48
89.82
104.84
109.08
106.58
101.18
94.71
87.41
78.39
67.10
54.91
44.08
36.25
31.44
28.06
23.93
17.37
8.29
-1.67
-9.80
-13.69
-12.46
-7.18
-0.48
4.58
5.92
3.24
-2.04
-7.25
-9.96
-8.90
-4.02
3.79
13.18
22.17
28.10
28.01
19.95
4.37
-15.16
-32.87
-43.15
-43.21
-34.50
-21.89
-11.25
-6.66
-8.60
-14.55
-21.24
-26.74
-31.13
-35.65
-41.15
-47.28
-52.53
-55.45
-55.39
-53.02
-50.06
-48.23
-48.47
-50.61
-53.53
-55.78
-56.33
-55.02
-52.60
-50.31
-49.07
-49.07
-49.65
-49.65
-47.97
-44.15
-38.50
-31.95
-25.48
-19.67
-14.15
-8.07
-0.56
8.74
19.32
29.98
39.36
46.46
51.13
54.08
56.38
59.08
63.02
68.82
76.76
86.42
96.12
102.74
102.41
92.14
71.80
44.76
16.71
-6.91
-23.38
-33.48
-40.16
-46.09
-51.77
-55.37
-54.23
-46.88
-34.22
-19.01
-4.17
8.74
19.95
30.46
40.79
49.80
55.01
53.81
44.93
28.95
8.16
-14.08
-34.41
-50.21
-59.98
-63.18
-60.00
-51.36
-39.09
-25.75
-14.22
-6.96
-5.15
-8.33
-14.70
-21.42
-25.39
-24.52
-18.30
-7.72
5.31
18.79
31.19
41.56
49.25
53.70
54.42
51.20
44.26
34.27
22.31
9.76
-2.90
-15.57
-28.21
-40.61
-52.35
-62.65
-70.52
-74.98
-75.34
-70.41
-60.60
-47.15
-31.74
-16.04
-1.37
11.46
22.12
30.55
36.86
41.08
43.46
44.30
44.01
43.00
41.71
40.49
39.62
39.22
39.16
39.33
39.57
39.73
39.65
39.19
38.26
36.76
34.63
31.71
27.98
23.43
18.12
12.21
5.84
-0.62
-6.65
-11.78
-15.63
-17.92
-18.64
-18.05
-16.57
-14.56
-12.10
-9.04
-5.09
0.06
6.58
14.12
22.16
29.34
34.49
37.02
36.76
34.24
30.22
25.45
19.89
12.98
4.01
-7.08
-19.26
-30.38
-37.98
-39.71
-34.05
-21.94
-6.04
10.01
23.07
31.67
36.46
39.14
41.69
45.35
48.56
47.81
38.70
17.40
-18.58
-67.62
-127.79
-196.30
-262.00
-312.21
-335.51
-326.49
-288.27
-230.62
-166.02
-106.34
-58.79
-24.35
0.24
20.24
39.44
57.89
71.50
76.81
71.15
54.98
32.38
9.12
-8.82
-15.55
-9.42
7.00
28.92
51.25
70.91
86.65
97.92
104.48
106.19
103.20
96.75
88.80
80.84
73.60
66.14
55.95
40.73
18.28
-11.02
-42.99
-69.85
-82.72
-74.83
-45.95
-3.38
40.11
70.88
79.91
66.48
38.01
4.87
-19.96
-29.77
-25.79
-14.13
-1.20
9.59
18.28
26.43
34.86
42.89
47.92
47.97
43.07
35.35
28.04
24.10
24.74
29.08
34.80
38.69
38.35
33.15
24.26
13.89
4.57
-1.74
-4.80
-5.28
-4.78
-4.84
-6.24
-8.75
-11.20
-12.11
-10.22
-5.36
1.67
8.89
14.07
15.45
12.01
3.17
-10.91
-29.52
-50.97
-71.92
-87.83
-94.16
-88.42
-70.58
-46.77
-24.49
-9.81
-5.08
-8.49
-15.90
-23.30
-28.64
-32.14
-35.26
-38.65
-41.77
-43.30
-42.23
-38.53
-33.39
-28.47
-25.25
-24.25
-24.73
-25.24
-24.37
-21.12
-15.52
-8.50
-1.40
4.51
8.46
10.63
11.88
13.41
16.33
21.20
27.98
36.06
44.49
52.29
58.75
63.57
66.80
68.85
70.29
71.80
74.13
77.60
81.50
83.70
81.19
71.48
54.24
32.05
9.65
-7.98
-18.00
-21.05
-20.69
-21.54
-26.98
-37.69
-51.72
-65.41
-74.68
-76.54
-69.95
-56.09
-37.94
-19.56
-5.05
2.49
0.00
-13.16
-34.36
-57.61
-74.70
-77.85
-62.93
-31.86
7.40
43.71
67.72
75.48
69.22
54.83
37.77
20.36
1.87
-18.86
-40.65
-58.96
-68.10
-64.69
-50.29
-30.95
-13.92
-3.32
2.23
8.54
22.09
45.32
74.27
99.58
110.63
100.81
71.04
30.16
-8.71
-33.60
-38.77
-26.58
-5.71
13.33
22.82
20.23
7.92
-9.12
-25.84
-38.88
-46.86
-49.79
-48.28
-43.19
-35.60
-26.57
-16.64
-5.33
8.65
26.26
46.32
64.83
75.67
73.27
55.24
23.92
-14.14
-50.68
-78.41
-92.57
-90.93
-73.05
-39.87
5.49
56.29
101.99
130.48
132.65
106.78
60.34
7.54
-36.29
-60.73
-63.71
-50.85
-31.56
-14.21
-2.96
2.68
5.92
10.04
16.50
24.74
33.00
39.47
43.01
42.79
37.95
27.57
11.38
-9.24
-30.94
-49.17
-60.00
-61.93
-56.66
-48.39
-41.74
-39.41
-40.69
-41.54
-36.55
-21.63
3.62
35.19
65.65
86.64
91.74
78.93
51.57
17.49
-13.46
-33.13
-38.31
-31.96
-21.71
-16.06
-19.59
-30.07
-38.92
-35.64
-13.92
23.78
65.86
96.31
101.99
79.01
34.79
-15.03
-53.25
-68.25
-58.16
-30.44
2.78
30.81
48.90
58.63
64.55
69.45
71.44
64.97
44.84
10.54
-31.84
-71.96
-100.34
-112.73
-111.45
-102.99
-93.20
-83.22
-68.89
-43.82
-4.21
47.12
100.07
140.23
154.52
136.93
91.57
31.55
-25.77
-64.93
-77.46
-63.56
-30.69
9.97
47.09
71.59
77.75
63.73
31.74
-12.08
-58.60
-97.63
-120.30
-121.39
-100.64
-62.83
-16.53
27.80
60.22
74.19
68.62
48.56
23.66
4.82
-0.07
10.86
32.79
56.54
72.71
75.44
64.22
43.10
18.05
-5.99
-26.71
-44.02
-58.34
-68.95
-73.52
-69.22
-54.63
-31.31
-3.89
21.43
39.06
45.49
39.77
23.14
-1.55
-29.91
-56.10
-73.34
-75.54
-59.97
-29.37
7.87
40.54
59.18
60.37
48.02
30.87
17.56
12.10
12.45
12.90
8.52
-1.47
-13.20
-21.10
-21.92
-17.15
-12.02
-11.85
-18.38
-28.42
-36.05
-36.26
-28.22
-15.93
-5.91
-3.23
-8.84
-19.51
-30.11
-36.82
-37.75
-32.23
-19.75
0.31
27.59
59.04
87.98
105.95
106.35
89.43
63.85
42.91
37.70
51.48
78.13
104.95
118.32
108.93
76.27
28.51
-21.82
-63.12
-88.62
-97.13
-92.24
-76.88
-57.69
-43.00
-37.20
-37.68
-37.79
-32.06
-18.23
1.36
22.35
38.80
45.09
37.42
14.54
-21.68
-66.27
-110.52
-143.21
-155.78
-146.14
-118.27
-79.76
-38.83
-1.24
26.79
42.88
48.65
47.14
40.59
30.92
20.64
12.62
8.76
9.09
12.38
16.41
18.56
17.03
12.27
6.93
4.45
6.98
13.89
22.28
27.98
27.50
20.11
8.47
-2.68
-9.03
-8.78
-3.03
5.80
15.45
24.55
31.82
35.90
34.98
27.25
12.50
-6.64
-25.00
-37.23
-40.52
-35.97
-27.67
-20.51
-17.79
-19.85
-24.36
-27.90
-27.75
-22.77
-13.45
-1.33
12.22
25.66
37.22
44.80
46.29
40.36
27.59
10.83
-5.42
-16.63
-20.16
-16.30
-7.84
1.43
8.79
13.75
17.73
22.52
28.75
35.06
38.83
37.90
31.75
22.54
14.32
10.91
13.84
21.18
28.25
29.91
23.27
9.15
-8.24
-23.47
-32.62
-34.94
-32.80
-30.03
-29.74
-32.77
-37.67
-41.91
-43.66
-42.79
-40.65
-38.65
-37.11
-34.82
-30.14
-22.57
-13.69
-6.67
-4.50
-7.81
-14.09
-18.66
-17.08
-7.60
7.90
24.95
38.85
46.72
48.07
43.92
35.37
23.02
7.54
-9.42
-24.81
-35.15
-38.06
-33.50
-23.73
-11.98
-0.84
8.58
16.07
21.21
22.65
18.84
9.42
-3.43
-15.26
-21.08
-17.70
-5.16
13.47
33.80
52.04
65.86
74.21
76.39
71.50
58.64
37.80
10.71
-18.70
-44.99
-62.85
-68.99
-63.24
-48.36
-28.90
-9.58
5.65
14.45
16.19
11.84
3.39
-6.65
-15.74
-21.88
-22.93
-18.62
-11.02
-3.64
0.44
0.07
-3.89
-9.62
-15.50
-20.63
-25.00
-28.87
-32.45
-35.74
-38.70
-41.26
-43.30
-44.65
-45.24
-45.34
-45.56
-46.60
-48.98
-52.89
-57.92
-63.02
-66.90
-68.62
-68.02
-65.65
-62.45
-58.99
-55.13
-49.84
-41.60
-28.44
-9.04
17.09
49.68
87.62
128.41
167.63
197.80
212.05
206.29
181.19
142.59
99.56
61.02
32.57
15.32
6.78
3.61
3.28
4.64
7.30
10.42
12.20
10.43
3.96
-6.27
-17.02
-24.09
-24.09
-16.05
-1.68
15.14
29.98
39.19
40.84
35.17
24.19
10.93
-1.55
-11.12
-17.19
-20.57
-22.83
-25.18
-27.56
-28.81
-27.59
-23.59
-18.11
-13.44
-11.48
-12.51
-15.02
-16.62
-15.57
-11.97
-7.65
-5.16
-6.27
-10.91
-17.12
-21.99
-23.06
-19.48
-12.43
-4.62
0.98
2.41
-0.37
-5.60
-10.59
-12.85
-11.19
-6.09
0.67
6.86
10.80
11.92
10.77
8.36
5.85
4.20
3.80
4.45
5.40
5.70
4.65
2.26
-0.62
-2.60
-2.59
-0.47
2.75
5.46
6.36
5.13
2.48
-0.44
-2.81
-4.61
-6.31
-8.24
-10.10
-11.11
-10.55
-8.39
-5.30
-2.30
-0.12
1.09
1.60
1.76
1.72
1.33
0.42
-0.96
-2.48
-3.68
-4.14
-3.68
-2.36
-0.51
1.36
2.72
3.22
2.83
1.93
1.11
0.87
1.32
2.09
2.49
1.94
0.30
-2.01
-4.10
-5.16
-4.84
-3.58
-2.27
-1.74
-2.18
-2.93
-2.86
-1.03
2.58
6.82
9.92
10.34
7.73
3.14
-1.56
-4.63
-5.38
-4.37
-2.93
-2.13
-2.13
-2.05
-0.74
2.42
6.91
11.18
13.35
12.13
7.55
1.05
-5.11
-8.70
-8.55
-4.96
0.38
5.24
7.74
7.15
4.04
-0.12
-3.84
-6.26
-7.29
-7.30
-6.49
-4.62
-1.21
3.79
9.44
13.81
14.70
10.77
2.52
-7.68
-16.55
-21.45
-21.64
-18.45
-14.29
-11.08
-9.28
-7.92
-5.63
-1.76
3.08
7.56
10.57
11.92
12.24
12.23
12.04
11.33
9.73
7.40
5.04
3.27
2.22
1.39
0.20
-1.45
-2.89
-3.25
-2.14
-0.09
1.70
2.14
1.01
-0.94
-2.59
-3.25
-3.15
-3.15
-4.03
-5.93
-8.20
-9.89
-10.33
-9.59
-8.31
-7.29
-6.92
-6.95
-6.62
-5.13
-2.11
2.17
6.83
10.73
12.91
12.94
11.16
8.48
6.02
4.57
4.26
4.58
4.76
4.27
3.14
1.97
1.50
2.17
3.77
5.50
6.42
5.92
4.05
1.43
-1.08
-2.90
-3.94
-4.51
-4.93
-5.23
-5.06
-3.95
-1.69
1.38
4.42
6.43
6.63
4.79
1.15
-3.62
-8.62
-12.83
-15.15
-14.67
-10.97
-4.43
3.63
11.26
16.61
18.58
17.23
13.63
9.16
4.70
0.32
-4.52
-10.22
-16.37
-21.63
-24.30
-23.20
-18.44
-11.44
-4.22
1.57
5.37
7.69
9.49
11.30
13.00
13.99
13.81
12.55
10.77
9.04
7.50
5.80
3.51
0.54
-2.66
-5.31
-6.81
-7.07
-6.50
-5.69
-5.08
-4.84
-4.92
-5.26
-5.79
-6.42
-6.90
-6.90
-6.25
-5.07
-3.80
-2.92
-2.55
-2.39
-1.81
-0.31
2.24
5.47
8.68
11.14
12.36
12.22
10.86
8.68
6.12
3.57
1.34
-0.36
-1.41
-1.80
-1.60
-1.10
-0.75
-1.04
-2.24
-4.15
-6.11
-7.29
-7.22
-6.05
-4.53
-3.47
-3.21
-3.38
-3.18
-1.93
0.39
3.04
4.89
5.01
3.35
0.72
-1.57
-2.45
-1.64
0.32
2.38
3.63
3.64
2.65
1.23
-0.05
-0.95
-1.54
-2.00
-2.31
-2.19
-1.27
0.62
3.25
5.88
7.54
7.31
4.88
0.82
-3.35
-5.70
-4.96
-1.34
3.43
7.03
8.00
6.50
4.14
2.64
2.60
3.23
3.16
1.71
-0.50
-1.96
-1.46
1.08
4.42
6.90
7.31
5.46
1.98
-2.15
-5.97
-8.49
-8.76
-6.24
-1.28
4.59
9.21
10.98
9.70
6.74
4.05
2.92
3.29
3.99
3.84
2.55
0.81
-0.31
-0.21
0.98
2.70
4.56
6.45
8.10
8.73
7.16
2.58
-4.43
-11.79
-16.78
-17.29
-12.79
-4.18
6.92
18.75
29.25
35.65
34.77
24.48
5.59
-17.37
-37.61
-49.22
-50.09
-42.72
-32.32
-23.60
-18.29
-15.04
-11.62
-7.37
-4.19
-5.07
-11.52
-21.84
-31.59
-36.14
-33.32
-24.57
-13.85
-5.17
-0.38
1.49
3.07
6.57
12.33
18.78
23.74
25.80
24.97
22.13
18.02
12.72
5.96
-2.22
-10.97
-18.77
-24.10
-26.05
-24.49
-19.73
-12.07
-1.74
10.56
23.07
32.95
37.26
34.37
24.96
11.98
-0.59
-9.41
-12.85
-11.27
-6.24
0.34
6.92
12.42
16.00
17.05
15.25
10.92
5.19
-0.17
-3.27
-2.78
1.49
8.26
15.04
19.01
18.23
12.72
4.56
-3.05
-7.51
-8.36
-7.50
-7.96
-11.95
-19.29
-27.25
-31.88
-30.11
-21.35
-7.79
6.65
18.06
24.07
24.50
20.96
15.91
11.47
8.78
7.76
7.41
6.55
4.32
0.65
-3.83
-8.08
-11.24
-13.05
-13.87
-14.34
-14.93
-15.42
-14.82
-11.91
-6.08
1.66
8.34
9.59
1.33
-18.04
-46.12
-76.46
-100.32
-109.72
-100.28
-72.64
-31.87
14.58
59.12
95.23
117.65
122.25
106.90
73.16
27.68
-18.23
-51.80
-63.65
-52.03
-23.86
8.37
32.21
40.50
33.59
17.65
0.61
-11.57
-16.63
-15.23
-9.20
-0.23
10.22
20.40
27.95
30.57
27.14
18.51
7.34
-3.25
-11.11
-15.76
-17.83
-17.90
-15.61
-9.64
1.13
16.34
33.38
47.98
55.91
54.69
44.61
28.37
9.88
-7.34
-20.94
-29.94
-34.12
-33.45
-27.79
-17.30
-3.13
12.08
24.42
29.98
26.41
14.41
-2.17
-17.71
-26.96
-27.22
-19.20
-6.36
6.84
16.70
21.00
18.91
10.53
-3.20
-20.00
-35.90
-45.86
-45.44
-33.04
-11.23
13.79
34.55
45.33
44.30
33.67
17.99
1.84
-11.77
-21.48
-26.73
-26.97
-21.61
-10.93
3.23
17.55
28.51
33.85
33.48
28.89
21.79
12.90
2.13
-10.31
-22.65
-31.66
-34.12
-28.85
-17.81
-5.26
4.51
9.45
10.65
11.16
13.66
18.49
23.26
24.36
19.29
8.46
-4.75
-15.57
-20.26
-17.97
-11.09
-3.99
-0.68
-2.75
-8.65
-14.57
-16.65
-13.02
-4.75
4.98
12.60
15.97
15.06
11.45
7.12
3.34
0.34
-2.35
-5.20
-8.09
-10.37
-11.29
-10.47
-8.17
-4.94
-1.28
2.60
6.62
10.47
13.36
14.23
12.29
7.47
0.64
-6.65
-12.83
-16.85
-18.31
-17.25
-13.83
-8.22
-1.01
6.59
12.76
15.87
15.35
12.12
7.91
4.02
0.35
-4.41
-11.49
-20.47
-28.75
-32.54
-28.87
-17.29
-0.32
17.80
32.96
42.56
45.78
42.87
34.48
21.63
6.09
-9.42
-21.84
-29.15
-31.32
-30.38
-29.12
-29.46
-31.33
-32.87
-31.72
-26.44
-17.33
-6.09
5.11
14.63
21.83
26.81
29.90
31.22
30.58
27.73
22.59
15.50
7.22
-1.06
-7.97
-12.39
-13.86
-12.74
-10.11
-7.01
-3.92
-0.67
3.08
6.98
9.67
9.29
4.64
-3.66
-13.07
-20.09
-21.91
-17.81
-9.29
0.71
9.18
14.12
14.89
12.08
7.21
2.26
-0.89
-1.19
0.94
3.57
4.16
1.00
-5.49
-12.60
-16.65
-15.05
-7.89
1.92
10.21
13.74
11.88
6.64
1.17
-2.19
-3.18
-3.38
-4.59
-7.33
-10.21
-10.94
-8.09
-2.42
3.30
5.89
3.87
-1.50
-6.94
-9.12
-6.71
-0.93
5.47
10.09
12.12
12.19
11.20
9.21
5.50
-0.33
-7.18
-12.62
-14.21
-11.38
-6.03
-1.43
0.05
-1.40
-3.28
-2.76
0.95
5.80
8.31
6.18
0.22
-6.07
-8.72
-6.05
0.31
6.58
9.43
8.01
4.14
0.75
-0.21
1.16
3.21
4.15
3.31
1.25
-0.90
-2.47
-3.64
-5.13
-7.41
-10.07
-11.90
-11.51
-8.21
-2.52
3.99
9.47
12.61
13.13
11.57
8.76
5.18
0.89
-3.88
-8.28
-10.73
-9.86
-5.59
0.30
4.91
5.93
3.19
-1.24
-4.37
-4.29
-1.28
2.66
5.37
6.06
5.51
4.98
4.85
4.14
1.40
-3.79
-9.95
-14.26
-14.41
-10.11
-3.34
2.91
6.51
7.23
6.31
5.22
4.48
3.58
1.83
-0.66
-2.81
-3.29
-1.62
1.41
4.13
5.08
3.85
1.18
-1.62
-3.38
-3.58
-2.32
-0.13
2.16
3.60
3.31
0.91
-3.13
-7.43
-10.23
-10.24
-7.30
-2.51
2.42
6.04
7.81
8.01
7.20
5.66
3.31
0.14
-3.20
-5.38
-4.99
-1.60
3.62
8.23
9.90
7.81
3.15
-1.58
-4.20
-4.03
-1.94
0.63
2.80
4.60
6.28
7.44
6.83
3.34
-2.67
-8.90
-12.23
-10.72
-5.29
0.61
3.04
0.25
-5.87
-10.75
-9.92
-1.87
10.75
22.41
27.70
24.21
13.63
0.60
-9.85
-14.77
-14.23
-10.62
-6.84
-4.59
-3.82
-3.20
-1.41
1.81
5.44
7.84
7.80
5.43
2.24
0.28
0.91
3.85
7.24
8.73
7.08
3.11
-0.55
-1.05
2.92
9.96
16.59
19.07
15.67
7.69
-1.23
-7.22
-8.30
-5.23
-0.61
2.98
4.69
5.64
7.69
11.79
16.95
20.64
20.24
14.63
4.79
-6.77
-17.35
-25.03
-29.03
-29.17
-25.49
-18.16
-7.83
3.78
13.89
19.32
17.66
8.39
-6.50
-23.11
-36.89
-44.26
-43.85
-36.69
-25.49
-13.30
-2.35
6.39
12.98
17.87
21.51
24.16
26.08
27.40
27.78
26.14
20.66
9.58
-7.60
-29.06
-50.49
-66.09
-70.57
-61.30
-39.68
-11.02
17.15
37.65
45.98
41.45
26.95
7.50
-11.51
-25.65
-32.17
-30.20
-20.76
-6.41
9.27
22.74
31.58
35.36
35.58
34.76
34.87
35.97
35.76
30.50
16.97
-5.52
-34.05
-62.63
-84.10
-92.57
-85.18
-62.85
-29.60
8.74
46.04
76.82
96.83
103.27
95.19
73.82
42.73
7.29
-26.58
-53.85
-71.74
-80.04
-80.53
-75.58
-66.88
-54.89
-39.36
-20.58
-0.36
18.05
31.21
37.14
36.29
31.21
25.15
20.51
17.91
16.54
15.24
13.49
11.78
11.07
11.93
14.01
15.98
16.27
13.77
8.45
1.44
-5.37
-10.05
-11.38
-9.33
-5.03
-0.30
3.27
4.91
4.99
4.53
4.52
5.13
5.58
4.57
1.16
-4.35
-10.30
-14.27
-14.14
-9.18
-0.45
9.60
17.99
22.43
22.09
17.80
11.47
5.14
-0.04
-4.11
-7.97
-12.50
-17.70
-22.31
-24.31
-21.96
-14.93
-4.75
5.66
13.06
15.02
10.58
0.41
-13.55
-28.39
-40.61
-46.65
-43.75
-30.93
-9.79
15.66
40.00
58.14
66.88
65.46
55.30
39.08
19.85
0.59
-15.88
-27.19
-31.80
-29.58
-22.10
-12.19
-2.91
3.54
6.47
6.55
5.04
2.98
0.67
-2.13
-5.70
-9.78
-13.46
-15.38
-14.46
-10.50
-4.52
1.59
5.74
6.61
4.15
-0.44
-5.33
-8.92
-10.42
-9.88
-7.81
-4.72
-0.94
3.18
6.97
9.45
9.68
7.33
2.96
-2.06
-6.11
-7.89
-6.91
-3.57
1.04
5.46
8.33
8.86
7.10
3.91
0.50
-2.16
-3.72
-4.47
-4.93
-5.32
-5.43
-4.86
-3.49
-1.71
-0.32
-0.00
-0.94
-2.65
-4.32
-5.21
-4.87
-3.23
-0.51
2.80
5.93
8.03
8.38
6.82
3.90
0.73
-1.55
-2.35
-1.84
-0.70
0.33
0.94
1.27
1.74
2.59
3.68
4.58
4.90
4.51
3.69
2.84
2.21
1.77
1.26
0.53
-0.30
-0.82
-0.53
0.74
2.55
3.98
3.97
1.96
-1.74
-5.97
-9.25
-10.47
-9.44
-6.86
-3.91
-1.47
0.34
2.09
4.43
7.49
10.52
12.24
11.50
8.05
2.70
-2.93
-7.20
-9.02
-8.18
-5.22
-1.11
3.10
6.36
7.84
6.96
3.73
-1.15
-6.29
-10.13
-11.49
-10.19
-7.12
-3.75
-1.39
-0.50
-0.57
-0.60
0.18
1.83
3.76
5.18
5.77
5.89
6.25
7.32
8.88
10.01
9.67
7.29
3.17
-1.73
-6.21
-9.44
-11.02
-10.92
-9.18
-5.85
-1.12
4.47
9.95
14.05
15.67
14.22
9.90
3.70
-2.91
-8.34
-11.41
-11.68
-9.54
-6.04
-2.50
-0.01
0.78
-0.18
-2.50
-5.45
-8.07
-9.28
-8.18
-4.47
1.15
7.01
11.11
12.07
9.94
6.15
2.70
0.92
0.71
0.77
-0.36
-3.21
-6.87
-9.63
-10.03
-7.80
-4.05
-0.49
1.58
1.91
1.26
0.69
0.83
1.61
2.44
2.73
2.22
1.07
-0.40
-1.95
-3.41
-4.65
-5.44
-5.44
-4.39
-2.28
0.50
3.38
5.79
7.39
8.04
7.73
6.39
3.94
0.52
-3.29
-6.52
-8.16
-7.66
-5.30
-1.91
1.52
4.46
6.82
8.66
9.72
9.41
7.24
3.43
-0.88
-4.15
-5.30
-4.56
-3.34
-3.38
-5.61
-9.35
-12.71
-13.63
-11.02
-5.34
1.73
8.15
12.36
13.69
12.31
9.00
4.78
0.70
-2.37
-3.97
-4.25
-3.80
-3.31
-3.05
-2.69
-1.47
1.08
4.62
7.84
9.10
7.28
2.49
-3.89
-9.88
-13.82
-15.04
-13.89
-11.26
-8.02
-4.69
-1.40
1.75
4.52
6.48
7.24
6.68
5.14
3.30
1.96
1.67
2.45
3.73
4.49
3.73
0.98
-3.29
-7.66
-10.32
-10.00
-6.67
-1.76
2.53
4.38
3.30
0.39
-2.40
-3.48
-2.54
-0.57
0.94
1.12
0.43
0.24
1.83
5.30
9.26
11.55
10.53
6.13
-0.01
-5.33
-7.71
-6.42
-2.45
2.17
5.34
5.77
3.37
-0.96
-5.71
-9.36
-10.78
-9.54
-6.06
-1.49
2.76
5.59
6.68
6.56
6.18
6.26
6.83
7.26
6.75
4.94
2.24
-0.40
-2.04
-2.30
-1.51
-0.44
0.30
0.57
0.72
1.13
1.74
1.91
0.72
-2.31
-6.73
-11.14
-13.84
-13.70
-10.79
-6.36
-2.18
0.32
0.60
-0.89
-2.99
-4.39
-4.02
-1.39
3.26
9.03
14.61
18.70
20.44
19.69
16.92
12.82
8.04
3.03
-1.75
-5.77
-8.54
-9.96
-10.46
-11.02
-12.60
-15.56
-19.18
-21.84
-21.79
-17.84
-9.82
1.44
14.08
25.25
31.59
30.31
20.53
4.18
-14.22
-29.15
-35.93
-32.50
-20.02
-2.25
15.86
29.73
36.15
33.88
23.31
7.09
-10.34
-24.43
-32.73
-36.06
-37.58
-40.46
-45.97
-53.07
-59.63
-64.22
-67.02
-69.50
-73.04
-77.70
-82.02
-83.69
-80.61
-71.84
-58.41
-42.43
-26.43
-12.29
-0.53
9.67
20.00
32.39
48.50
69.53
96.15
127.87
162.52
195.68
220.99
231.95
224.50
198.86
159.78
114.80
70.43
31.19
-0.37
-24.16
-41.31
-52.83
-59.07
-60.12
-56.64
-50.33
-43.30
-37.28
-33.10
-30.46
-28.17
-25.06
-20.67
-15.41
-10.37
-6.63
-4.80
-4.90
-6.28
-7.87
-8.68
-8.18
-6.46
-4.06
-1.62
0.33
1.44
1.72
1.48
1.18
1.29
2.17
3.96
6.58
9.67
12.55
14.60
15.46
15.21
14.44
14.10
15.10
17.94
22.36
27.23
31.18
33.02
32.33
29.63
26.21
23.33
21.74
21.11
20.05
16.78
9.69
-2.31
-19.63
-41.61
-65.92
-88.35
-102.70
-104.09
-90.38
-63.67
-30.10
2.41
27.31
41.93
47.73
48.78
49.11
51.15
55.07
59.41
62.13
61.51
56.48
46.95
33.79
18.68
3.96
-8.44
-17.43
-22.97
-25.67
-26.11
-24.53
-21.02
-16.12
-11.05
-7.40
-6.40
-8.21
-11.68
-14.95
-16.33
-15.09
-11.89
-8.29
-5.97
-5.95
-8.18
-11.63
-14.90
-16.94
-17.48
-17.17
-17.11
-18.23
-20.82
-24.46
-28.33
-31.74
-34.51
-37.01
-39.98
-43.98
-49.10
-54.96
-60.98
-66.76
-72.34
-78.12
-84.41
-91.28
-98.23
-104.39
-108.77
-110.68
-109.86
-106.52
-101.33
-94.20
-84.71
-72.35
-56.87
-38.66
-18.84
0.93
18.99
34.24
46.49
56.15
63.91
70.16
74.82
77.44
77.63
75.52
71.81
67.62
63.84
60.81
58.26
55.62
52.40
48.57
44.53
40.90
38.13
36.19
34.69
33.05
30.82
27.88
24.48
21.07
18.15
16.09
14.96
14.44
14.00
13.11
11.53
9.42
7.35
5.99
5.63
6.00
6.39
6.01
4.55
2.38
0.38
-0.56
-0.17
1.09
2.23
2.39
1.35
-0.33
-1.64
-1.83
-0.76
0.95
2.29
2.49
1.40
-0.40
-1.92
-2.33
-1.44
0.28
1.89
2.57
2.03
0.65
-0.76
-1.40
-0.97
0.20
1.36
1.77
1.17
-0.08
-1.18
-1.41
-0.56
0.89
2.03
2.04
0.71
-1.43
-3.31
-3.94
-2.96
-0.88
1.24
2.36
2.06
0.77
-0.57
-1.03
-0.31
1.13
2.36
2.56
1.49
-0.34
-2.00
-2.67
-2.07
-0.60
0.92
1.68
1.32
0.07
-1.39
-2.32
-2.25
-1.25
0.12
1.10
1.16
0.29
-1.02
-2.03
-2.17
-1.43
-0.33
0.34
0.08
-1.02
-2.27
-2.83
-2.22
-0.70
0.93
1.78
1.51
0.44
-0.55
-0.68
0.30
1.91
3.27
3.61
2.70
1.00
-0.64
-1.44
-1.10
0.07
1.40
2.18
2.04
1.09
-0.10
-0.92
-0.97
-0.31
0.57
1.05
0.78
-0.18
-1.33
-1.99
-1.79
-0.79
0.41
1.13
0.94
-0.02
-1.12
-1.60
-1.04
0.39
1.96
2.81
2.48
1.12
-0.52
-1.54
-1.40
-0.29
1.05
1.71
1.17
-0.35
-2.05
-2.94
-2.48
-0.85
1.09
2.33
2.25
0.99
-0.67
-1.72
-1.55
-0.28
1.37
2.46
2.41
1.34
-0.04
-0.86
-0.64
0.46
1.66
2.09
1.29
-0.46
-2.33
-3.34
-2.98
-1.47
0.31
1.36
1.18
-0.02
-1.44
-2.14
-1.69
-0.33
1.12
1.83
1.39
0.07
-1.36
-2.07
-1.66
-0.37
1.05
1.79
1.45
0.18
-1.30
-2.20
-2.03
-0.90
0.57
1.61
1.70
0.86
-0.33
-1.11
-0.97
0.06
1.38
2.18
1.92
0.65
-0.99
-2.11
-2.12
-1.08
0.35
1.26
1.09
-0.05
-1.49
-2.34
-2.08
-0.87
0.58
1.41
1.18
0.05
-1.26
-1.94
-1.53
-0.26
1.18
1.98
1.71
0.58
-0.72
-1.37
-0.92
0.44
2.02
2.97
2.80
1.61
0.02
-1.16
-1.34
-0.51
0.85
1.98
2.28
1.62
0.40
-0.73
-1.19
-0.87
-0.12
0.40
0.20
-0.77
-2.01
-2.75
-2.41
-0.98
0.92
2.34
2.56
1.51
-0.19
-1.60
-1.98
-1.27
0.01
1.04
1.27
0.72
-0.09
-0.50
-0.13
0.82
1.78
2.09
1.45
0.06
-1.44
-2.31
-2.11
-0.89
0.77
2.02
2.21
1.19
-0.54
-2.05
-2.54
-1.69
-0.00
1.57
2.09
1.21
-0.59
-2.34
-3.09
-2.51
-1.01
0.52
1.27
1.01
0.17
-0.55
-0.55
0.21
1.20
1.66
1.11
-0.38
-2.19
-3.43
-3.48
-2.30
-0.43
1.29
2.20
2.11
1.35
0.57
0.32
0.75
1.46
1.83
1.32
-0.09
-1.89
-3.22
-3.39
-2.27
-0.41
1.20
1.74
1.00
-0.53
-1.89
-2.28
-1.53
-0.15
0.99
1.19
0.38
-0.87
-1.70
-1.47
-0.15
1.69
3.15
3.57
2.82
1.37
-0.03
-0.70
-0.45
0.38
1.12
1.20
0.46
-0.74
-1.69
-1.75
-0.73
0.97
2.53
3.16
2.54
0.99
-0.63
-1.45
-1.06
0.27
1.75
2.53
2.20
1.00
-0.36
-1.12
-0.96
-0.14
0.67
0.82
0.10
-1.10
-1.99
-1.92
-0.76
0.96
2.33
2.58
1.55
-0.18
-1.66
-2.12
-1.44
-0.18
0.77
0.76
-0.26
-1.69
-2.70
-2.73
-1.77
-0.37
0.74
1.02
0.41
-0.68
-1.60
-1.78
-1.05
0.25
1.48
1.96
1.41
0.12
-1.17
-1.72
-1.17
0.15
1.44
1.90
1.14
-0.52
-2.18
-2.96
-2.42
-0.87
0.87
1.90
1.79
0.78
-0.39
-0.94
-0.53
0.54
1.51
1.69
0.84
-0.58
-1.74
-1.91
-0.90
0.78
2.21
2.59
1.65
-0.15
-1.90
-2.71
-2.18
-0.60
1.24
2.49
2.68
1.97
0.99
0.47
0.77
1.64
2.42
2.42
1.41
-0.22
-1.64
-2.02
-1.15
0.48
1.83
2.00
0.72
-1.42
-3.28
-3.82
-2.73
-0.65
1.27
1.92
0.95
-1.10
-3.10
-4.00
-3.46
-1.88
-0.20
0.71
0.56
-0.35
-1.30
-1.69
-1.30
-0.39
0.52
0.97
0.82
0.29
-0.21
-0.27
0.25
1.15
1.93
2.06
1.29
-0.15
-1.64
-2.39
-1.98
-0.56
1.10
2.05
1.72
0.27
-1.48
-2.47
-2.04
-0.32
1.84
3.40
3.67
2.71
1.23
0.12
-0.06
0.63
1.56
1.99
1.48
0.19
-1.25
-2.10
-1.90
-0.78
0.69
1.72
1.82
1.02
-0.18
-1.03
-1.01
-0.12
1.12
1.97
1.87
0.80
-0.66
-1.66
-1.61
-0.53
0.90
1.74
1.39
-0.05
-1.79
-2.81
-2.50
-1.06
0.64
1.57
1.14
-0.41
-2.21
-3.24
-2.99
-1.66
-0.04
0.98
0.96
0.10
-0.91
-1.31
-0.73
0.67
2.21
3.14
2.97
1.81
0.27
-0.86
-1.00
-0.14
1.18
2.16
2.21
1.27
-0.15
-1.24
-1.45
-0.74
0.33
1.00
0.74
-0.39
-1.81
-2.74
-2.68
-1.69
-0.33
0.64
0.73
-0.03
-1.15
-1.93
-1.90
-1.07
0.10
0.94
1.00
0.29
-0.72
-1.35
-1.14
-0.11
1.21
2.11
2.05
1.03
-0.42
-1.52
-1.68
-0.84
0.49
1.52
1.62
0.71
-0.68
-1.73
-1.78
-0.71
0.92
2.24
2.53
1.68
0.20
-1.03
-1.28
-0.45
0.93
1.99
2.01
0.89
-0.83
-2.21
-2.49
-1.53
0.15
1.60
2.04
1.26
-0.22
-1.46
-1.68
-0.67
1.00
2.38
2.65
1.62
-0.14
-1.63
-2.01
-1.07
0.65
2.20
2.71
1.96
0.41
-1.08
-1.75
-1.37
-0.34
0.59
0.79
0.14
-0.89
-1.61
-1.47
-0.52
0.67
1.29
0.83
-0.61
-2.33
-3.39
-3.18
-1.77
0.10
1.44
1.58
0.55
-0.99
-2.08
-2.05
-0.87
0.84
2.23
2.63
1.94
0.64
-0.50
-0.87
-0.31
0.74
1.61
1.70
0.89
-0.38
-1.34
-1.38
-0.42
1.02
2.05
1.98
0.71
-1.14
-2.59
-2.80
-1.65
0.24
1.84
2.28
1.38
-0.31
-1.80
-2.27
-1.51
-0.07
1.15
1.36
0.42
-1.18
-2.51
-2.85
-2.04
-0.56
0.75
1.23
0.76
-0.23
-0.99
-0.95
-0.05
1.22
2.15
2.19
1.30
-0.03
-1.03
-1.08
-0.09
1.48
2.89
3.45
2.97
1.84
0.74
0.29
0.66
1.50
2.11
1.89
0.71
-1.00
-2.45
-2.96
-2.30
-0.88
0.49
1.06
0.49
-0.88
-2.30
-2.96
-2.51
-1.20
0.28
1.17
1.10
0.26
-0.68
-1.07
-0.60
0.46
1.41
1.58
0.69
-0.89
-2.34
-2.85
-2.08
-0.42
1.24
1.96
1.29
-0.46
-2.35
-3.38
-3.00
-1.41
0.53
1.86
1.97
1.03
-0.28
-1.09
-0.90
0.15
1.40
2.09
1.80
0.72
-0.50
-1.08
-0.66
0.58
1.94
2.66
2.33
1.14
-0.23
-1.02
-0.82
0.17
1.29
1.81
1.35
0.13
-1.16
-1.76
-1.29
0.02
1.42
2.09
1.60
0.13
-1.56
-2.60
-2.49
-1.33
0.15
1.10
0.97
-0.11
-1.44
-2.16
-1.73
-0.31
1.37
2.39
2.19
0.92
-0.70
-1.77
-1.77
-0.86
0.26
0.74
0.17
-1.21
-2.65
-3.30
-2.77
-1.30
0.33
1.28
1.14
0.09
-1.18
-1.89
-1.58
-0.41
0.97
1.82
1.74
0.85
-0.20
-0.65
-0.06
1.44
3.15
4.23
4.07
2.72
0.81
-0.76
-1.33
-0.78
0.37
1.30
1.37
0.52
-0.75
-1.69
-1.72
-0.85
0.35
1.09
0.86
-0.27
-1.63
-2.41
-2.09
-0.80
0.78
1.80
1.72
0.65
-0.76
-1.70
-1.60
-0.54
0.89
1.84
1.74
0.58
-1.08
-2.41
-2.74
-1.99
-0.61
0.57
0.93
0.32
-0.78
-1.59
-1.50
-0.47
0.97
1.98
1.99
1.02
-0.28
-1.05
-0.71
0.64
2.29
3.30
3.09
1.73
-0.03
-1.25
-1.29
-0.19
1.38
2.49
2.47
1.28
-0.51
-2.02
-2.58
-2.03
-0.80
0.39
0.95
0.74
0.05
-0.54
-0.59
-0.06
0.64
0.94
0.44
-0.79
-2.20
-3.06
-2.81
-1.48
0.33
1.72
1.97
0.93
-0.86
-2.41
-2.92
-2.08
-0.37
1.34
2.18
1.84
0.65
-0.61
-1.18
-0.81
0.18
1.05
1.20
0.48
-0.63
-1.39
-1.23
-0.13
1.30
2.23
2.04
0.75
-0.99
-2.25
-2.39
-1.36
0.23
1.47
1.75
0.98
-0.32
-1.35
-1.51
-0.70
0.62
1.70
1.92
1.15
-0.18
-1.32
-1.53
-0.66
0.86
2.14
2.39
1.36
-0.46
-2.06
-2.56
-1.68
0.01
1.44
1.70
0.55
-1.35
-2.89
-3.16
-1.98
-0.00
1.68
2.24
1.53
0.17
-0.91
-1.00
-0.07
1.31
2.25
2.13
0.92
-0.82
-2.25
-2.67
-1.91
-0.41
1.07
1.83
1.66
0.84
0.05
-0.08
0.62
1.77
2.70
2.78
1.89
0.44
-0.79
-1.15
-0.50
0.71
1.67
1.71
0.71
-0.88
-2.22
-2.63
-1.90
-0.43
0.99
1.67
1.37
0.39
-0.60
-0.98
-0.51
0.54
1.58
1.99
1.48
0.29
-0.99
-1.67
-1.36
-0.21
1.15
1.93
1.65
0.37
-1.29
-2.50
-2.67
-1.84
-0.61
0.22
0.17
-0.66
-1.62
-1.94
-1.27
0.11
1.45
1.99
1.44
0.16
-1.06
-1.48
-0.86
0.43
1.58
1.81
0.86
-0.91
-2.66
-3.55
-3.16
-1.77
-0.20
0.66
0.31
-1.00
-2.43
-3.03
-2.33
-0.61
1.23
2.22
1.90
0.62
-0.74
-1.27
-0.63
0.78
2.10
2.58
1.96
0.69
-0.46
-0.78
-0.06
1.32
2.61
3.13
2.61
1.31
-0.06
-0.79
-0.52
0.52
1.67
2.16
1.58
0.17
-1.31
-2.03
-1.55
-0.15
1.35
2.02
1.41
-0.21
-1.99
-2.97
-2.63
-1.19
0.52
1.57
1.40
0.20
-1.29
-2.17
-1.92
-0.65
0.96
2.08
2.18
1.37
0.22
-0.51
-0.38
0.49
1.49
1.88
1.27
-0.16
-1.70
-2.54
-2.22
-0.93
0.58
1.43
1.12
-0.20
-1.79
-2.73
-2.53
-1.31
0.23
1.26
1.28
0.40
-0.72
-1.33
-1.02
0.06
1.30
1.95
1.62
0.46
-0.90
-1.75
-1.66
-0.73
0.46
1.25
1.24
0.57
-0.19
-0.40
0.24
1.47
2.59
2.86
1.92
0.08
-1.84
-2.94
-2.73
-1.39
0.31
1.44
1.43
0.35
-1.17
-2.29
-2.41
-1.54
-0.25
0.69
0.73
-0.14
-1.38
-2.18
-1.99
-0.80
0.79
1.93
1.98
0.94
-0.57
-1.66
-1.69
-0.68
0.75
1.75
1.75
0.79
-0.45
-1.15
-0.82
0.43
1.92
2.80
2.53
1.22
-0.51
-1.80
-2.10
-1.38
-0.19
0.74
0.88
0.21
-0.79
-1.43
-1.24
-0.22
1.12
2.07
2.12
1.26
-0.02
-1.00
-1.15
-0.41
0.76
1.62
1.62
0.68
-0.69
-1.69
-1.71
-0.68
0.80
1.82
1.64
0.19
-1.87
-3.50
-3.86
-2.77
-0.83
0.98
1.82
1.49
0.50
-0.31
-0.26
0.71
2.08
3.03
2.98
1.94
0.46
-0.65
-0.81
-0.05
1.02
1.51
0.87
-0.85
-2.88
-4.16
-3.91
-2.14
0.33
2.25
2.67
1.38
-0.89
-2.93
-3.69
-2.82
-0.87
1.12
2.19
1.96
0.83
-0.38
-0.92
-0.59
0.21
0.79
0.60
-0.34
-1.48
-2.08
-1.63
-0.23
1.47
2.61
2.63
1.56
0.03
-1.12
-1.26
-0.32
1.22
2.51
2.87
2.09
0.57
-0.92
-1.64
-1.28
-0.14
1.05
1.62
1.29
0.37
-0.49
-0.66
-0.02
0.99
1.64
1.34
0.06
-1.63
-2.85
-2.92
-1.77
0.02
1.50
1.85
0.89
-0.87
-2.48
-3.05
-2.26
-0.55
1.14
1.88
1.32
-0.12
-1.51
-1.92
-1.07
0.56
1.99
2.33
1.34
-0.42
-1.94
-2.34
-1.43
0.24
1.68
2.08
1.27
-0.23
-1.55
-1.98
-1.34
-0.09
1.02
1.38
0.81
-0.30
-1.28
-1.50
-0.81
0.43
1.54
1.83
1.11
-0.26
-1.48
-1.79
-0.92
0.72
2.26
2.83
2.11
0.52
-1.02
-1.63
-1.00
0.43
1.77
2.15
1.34
-0.21
-1.61
-2.06
-1.32
0.18
1.58
2.13
1.55
0.24
-1.05
-1.58
-1.08
0.12
1.29
1.71
1.12
-0.20
-1.52
-2.10
-1.63
-0.40
0.89
1.50
1.14
0.09
-0.94
-1.25
-0.59
0.66
1.74
1.90
0.92
-0.78
-2.31
-2.85
-2.08
-0.42
1.24
1.98
1.42
-0.11
-1.75
-2.59
-2.21
-0.85
0.71
1.63
1.50
0.59
-0.37
-0.66
0.02
1.32
2.44
2.60
1.58
-0.19
-1.78
-2.34
-1.57
0.09
1.67
2.26
1.54
-0.09
-1.71
-2.38
-1.75
-0.14
1.56
2.45
2.07
0.71
-0.89
-1.85
-1.75
-0.77
0.39
0.95
0.50
-0.76
-2.11
-2.75
-2.29
-0.94
0.60
1.51
1.39
0.45
-0.60
-1.02
-0.46
0.84
2.14
2.68
2.11
0.66
-0.94
-1.91
-1.85
-0.98
0.02
0.36
-0.38
-2.03
-3.89
-5.11
-5.19
-4.24
-2.93
-2.13
-2.37
-3.61
-5.22
-6.40
-6.66
-6.09
-5.30
-5.02
-5.66
-7.05
-8.55
-9.49
-9.61
-9.23
-9.07
-9.81
-11.66
-14.23
-16.73
-18.47
-19.34
-19.88
-21.03
-23.53
-27.47
-32.21
-36.69
-40.01
-41.94
-43.12
-44.72
-47.79
-52.70
-58.90
-65.25
-70.68
-74.67
-77.63
-80.70
-85.06
-91.30
-98.94
-106.48
-111.99
-113.82
-110.77
-102.23
-88.04
-68.28
-43.41
-14.35
17.56
50.84
83.37
113.70
141.19
165.79
187.54
206.02
220.48
230.09
234.43
233.26
226.76
215.01
198.01
176.25
151.00
124.59
99.63
78.35
61.33
47.83
35.92
22.94
6.43
-15.96
-45.37
-81.05
-118.59
-153.21
-179.36
-193.08
-194.13
-186.08
-175.81
-169.56
-171.16
-179.35
-190.14
-198.53
-200.93
-196.10
-183.77
-164.65
-137.90
-102.34
-57.50
-4.96
51.97
109.04
158.36
195.54
218.86
231.04
236.22
238.03
237.92
235.20
227.84
213.78
197.31
179.30
162.48
149.68
143.29
144.68
154.01
169.92
189.13
207.00
211.03
194.56
156.07
100.24
36.73
-23.15
-70.64
-102.25
-119.53
-127.58
-130.05
-129.02
-124.92
-117.81
-108.63
-99.43
-92.48
-88.94
-88.81
-89.75
-89.25
-85.72
-79.06
-70.58
-62.26
-55.90
-52.31
-51.27
-51.11
-50.14
-47.29
-42.48
-36.50
-30.62
-25.92
-22.95
-21.59
-20.93
-20.04
-18.28
-15.59
-12.33
-9.11
-6.45
-4.60
-3.52
-2.79
-2.03
-0.93
0.55
2.29
4.07
5.69
7.05
8.13
9.06
9.95
10.90
12.01
13.22
14.48
15.72
16.92
18.05
19.18
20.35
21.58
22.83
23.91
24.52
24.35
23.05
20.40
16.31
10.85
4.16
-3.50
-11.89
-20.77
-29.84
-38.70
-46.71
-53.09
-56.98
-57.77
-55.18
-49.66
-42.17
-34.02
-26.47
-20.26
-15.51
-11.83
-8.73
-5.96
-3.86
-3.27
-5.14
-9.86
-16.87
-24.70
-31.49
-35.88
-37.63
-37.74
-37.58
-38.02
-38.98
-39.56
-38.68
-35.77
-30.85
-24.02
-15.11
-3.88
9.16
21.87
30.74
32.45
25.96
13.81
1.53
-4.76
-1.21
11.59
28.69
43.04
48.83
44.07
31.30
16.07
3.86
-2.51
-4.16
-5.29
-10.61
-22.63
-40.40
-59.80
-75.28
-82.09
-77.30
-60.92
-35.54
-5.60
23.80
47.75
62.39
65.77
58.42
44.01
27.58
13.46
4.05
0.05
1.16
6.73
15.71
26.38
37.39
47.28
54.85
59.93
63.95
69.33
77.79
88.94
94.07
85.93
63.97
35.19
8.24
-11.60
-23.18
-28.13
-29.04
-28.17
-25.93
-22.19
-17.61
-13.77
-12.21
-13.30
-16.12
-19.13
-21.08
-20.87
-18.57
-15.53
-13.66
-14.06
-16.30
-18.84
-20.13
-19.46
-16.88
-13.40
-10.38
-9.05
-9.90
-12.73
-17.13
-22.14
-25.71
-24.16
-13.52
7.95
37.53
67.79
89.39
95.03
83.17
58.81
30.77
6.91
-9.60
-20.47
-29.13
-36.91
-41.34
-37.77
-23.19
0.67
27.09
47.45
55.33
49.25
33.75
15.78
1.40
-6.95
-10.44
-12.06
-14.37
-18.13
-22.18
-24.72
-24.59
-21.90
-17.81
-14.08
-11.97
-11.85
-13.11
-14.57
-15.09
-14.11
-11.87
-9.23
-7.13
-6.16
-6.33
-7.13
-7.82
-7.82
-6.96
-5.52
-4.02
-2.97
-2.54
-2.63
-2.94
-3.07
-2.85
-2.25
-1.51
-0.85
-0.49
-0.43
-0.56
-0.73
-0.80
-0.72
-0.51
-0.25
0.00
0.19
0.30
0.37
0.41
0.44
0.47
0.49
0.51
0.52
0.53
0.54
0.55
0.56
0.58
0.58
0.60
0.61
0.63
0.65
0.66
0.68
0.70
0.72
0.73
0.75
0.78
0.79
0.81
0.83
0.86
0.88
0.90
0.93
0.95
0.98
1.01
1.04
1.07
1.10
1.13
1.16
1.20
1.23
1.27
1.31
1.35
1.39
1.43
1.48
1.52
1.57
1.62
1.68
1.73
1.79
1.84
1.90
1.96
2.01
2.06
2.10
2.13
2.15
2.16
2.15
2.13
2.10
2.06
2.01
1.95
1.89
1.81
1.75
1.67
1.60
1.52
1.44
1.34
1.22
1.09
0.91
0.73
0.55
0.40
0.25
0.12
-0.04
-0.27
-0.62
-1.11
-1.70
-2.39
-3.12
-3.89
-4.70
-5.62
-6.68
-7.95
-9.45
-11.13
-12.92
-14.75
-16.58
-18.45
-20.46
-22.75
-25.44
-28.53
-31.91
-35.37
-38.73
-41.90
-44.95
-48.14
-51.77
-56.07
-60.99
-66.12
-70.80
-74.32
-76.10
-75.89
-73.76
-69.97
-64.71
-58.02
-49.38
-38.11
-23.71
-6.25
13.43
33.84
53.23
70.13
83.75
94.19
102.19
108.79
115.09
121.92
129.58
137.49
143.93
146.27
141.68
128.24
106.07
77.63
47.18
19.29
-2.59
-17.14
-25.11
-28.48
-29.38
-29.29
-28.79
-27.84
-26.29
-24.25
-22.20
-20.77
-20.47
-21.30
-22.63
-23.42
-22.70
-20.13
-16.30
-12.44
-9.90
-9.36
-10.56
-12.35
-13.43
-12.97
-11.12
-8.81
-7.26
-7.31
-8.90
-11.14
-12.74
-12.70
-10.79
-7.63
-4.29
-1.75
-0.48
-0.25
-0.45
-0.45
0.09
1.05
1.95
2.21
1.39
-0.61
-3.45
-6.47
-8.86
-10.07
-10.00
-9.07
-7.92
-7.06
-6.53
-5.92
-4.69
-2.65
-0.17
1.94
2.90
2.46
1.05
-0.36
-0.85
0.00
1.87
3.89
5.08
4.85
3.33
1.24
-0.42
-0.88
-0.06
1.45
2.66
2.81
1.77
0.17
-1.00
-1.00
0.13
1.61
2.39
1.85
0.25
-1.41
-1.93
-0.73
1.76
4.27
5.42
4.44
1.66
-1.61
-3.89
-4.24
-2.74
-0.43
1.45
2.08
1.62
0.97
1.18
2.67
4.83
6.27
5.59
2.27
-2.94
-8.23
-11.67
-12.12
-9.78
-6.03
-2.61
-0.75
-0.53
-1.09
-1.22
-0.19
1.80
3.79
4.69
4.01
2.13
0.17
-0.75
-0.17
1.44
2.93
3.14
1.62
-1.13
-3.86
-5.25
-4.63
-2.33
0.51
2.57
3.04
2.02
0.39
-0.73
-0.69
0.35
1.55
1.95
1.12
-0.53
-1.94
-2.08
-0.60
1.87
4.07
4.74
3.46
0.87
-1.61
-2.63
-1.63
0.79
3.28
4.45
3.75
1.72
-0.30
-1.03
-0.02
2.03
3.68
3.57
1.32
-2.25
-5.52
-6.89
-5.65
-2.34
1.55
4.40
5.29
4.32
2.55
1.21
1.03
1.82
2.65
2.51
0.99
-1.37
-3.32
-3.65
-1.90
1.23
4.30
5.82
5.17
2.86
0.28
-1.18
-0.87
0.82
2.70
3.57
2.84
0.90
-1.22
-2.38
-2.03
-0.46
1.33
2.23
1.65
-0.13
-2.12
-3.22
-2.84
-1.23
0.62
1.60
1.15
-0.45
-2.21
-3.06
-2.49
-0.88
0.76
1.36
0.44
-1.58
-3.69
-4.77
-4.26
-2.46
-0.34
1.06
1.13
0.09
-1.17
-1.62
-0.76
1.15
3.12
4.06
3.39
1.45
-0.75
-2.07
-1.89
-0.48
1.25
2.25
2.01
0.74
-0.74
-1.57
-1.35
-0.32
0.71
0.86
-0.29
-2.45
-4.67
-5.82
-5.13
-2.72
0.45
3.03
3.99
3.18
1.44
0.05
-0.03
1.24
2.97
3.90
3.19
1.00
-1.62
-3.32
-3.24
-1.48
0.98
2.88
3.39
2.57
1.23
0.36
0.52
1.46
2.36
2.36
1.18
-0.67
-2.13
-2.17
-0.42
2.62
5.74
7.65
7.57
5.63
2.80
0.31
-0.91
-0.77
0.05
0.53
-0.05
-1.57
-3.16
-3.68
-2.45
0.22
3.15
4.99
5.11
3.92
2.68
2.57
3.95
5.99
7.23
6.54
3.92
0.59
-1.66
-1.55
0.99
4.77
8.02
9.30
8.11
5.04
1.32
-1.62
-2.54
-0.65
4.34
11.91
20.64
28.40
32.99
33.00
28.47
20.88
12.45
5.05
-0.46
-4.44
-7.84
-11.46
-15.43
-19.30
-22.57
-25.07
-26.97
-28.40
-29.12
-28.54
-26.17
-22.21
-17.65
-13.85
-11.79
-11.49
-11.99
-11.95
-10.49
-7.69
-4.47
-1.92
-0.54
0.07
0.99
3.32
7.42
12.63
17.45
20.29
20.23
17.50
13.39
9.60
7.35
6.83
7.18
7.12
5.76
3.13
0.05
-2.47
-3.89
-4.48
-5.05
-6.27
-8.13
-9.88
-10.50
-9.25
-6.27
-2.50
0.64
1.95
0.92
-2.06
-5.83
-9.01
-10.52
-10.07
-8.25
-6.21
-5.00
-4.99
-5.62
-5.70
-4.18
-0.87
3.34
6.98
8.88
8.91
8.15
8.12
9.81
12.91
15.97
17.15
15.34
10.80
5.04
-0.05
-3.13
-4.04
-3.66
-3.30
-3.81
-5.16
-6.45
-6.52
-4.61
-0.88
3.52
7.03
8.49
7.71
5.62
3.69
3.10
4.04
5.63
6.44
5.49
2.89
-0.18
-2.06
-1.61
1.12
4.80
7.50
7.70
5.06
0.51
-4.20
-7.52
-8.81
-8.49
-7.69
-7.39
-7.91
-8.69
-8.85
-7.79
-5.64
-3.26
-1.71
-1.56
-2.51
-3.51
-3.43
-1.76
0.95
3.22
3.44
0.82
-3.97
-8.86
-11.32
-9.59
-3.68
4.63
12.53
17.56
18.72
16.67
13.18
10.01
8.02
6.88
5.57
3.15
-0.47
-4.45
-7.43
-8.29
-6.83
-3.97
-1.34
-0.46
-1.93
-5.07
-8.28
-9.87
-9.06
-6.34
-3.19
-1.20
-1.13
-2.54
-4.15
-4.69
-3.68
-1.73
-0.08
0.18
-1.25
-3.69
-5.88
-6.71
-5.76
-3.52
-1.05
0.56
0.80
-0.04
-1.09
-1.37
-0.38
1.61
3.68
4.78
4.33
2.59
0.53
-0.71
-0.52
0.86
2.44
3.16
2.48
0.78
-0.93
-1.56
-0.67
1.29
3.21
3.94
2.99
0.82
-1.46
-2.67
-2.28
-0.71
0.96
1.55
0.57
-1.51
-3.54
-4.37
-3.58
-1.76
-0.12
0.17
-1.23
-3.66
-5.79
-6.44
-5.19
-2.59
0.13
1.74
1.69
0.34
-1.28
-2.07
-1.43
0.33
2.30
3.48
3.38
2.29
1.04
0.46
0.85
1.78
2.39
2.02
0.65
-1.01
-1.90
-1.29
0.71
3.15
4.71
4.46
2.34
-0.78
-3.54
-4.88
-4.53
-3.08
-1.55
-0.80
-1.00
-1.62
-1.75
-0.82
1.10
3.26
4.60
4.38
2.63
0.13
-1.92
-2.48
-1.24
1.26
3.84
5.36
5.28
4.01
2.64
2.38
3.78
6.41
9.03
10.25
9.33
6.59
3.24
0.72
-0.18
0.33
1.14
1.04
-0.56
-3.23
-5.68
-6.56
-5.23
-2.18
1.20
3.38
3.48
1.73
-0.70
-2.44
-2.77
-2.08
-1.64
-2.87
-6.51
-12.17
-18.75
-25.05
-30.52
-35.25
-39.56
-43.38
-45.85
-45.67
-41.85
-34.73
-26.31
-19.65
-17.44
-20.65
-27.90
-35.85
-40.70
-39.88
-33.30
-23.42
-13.90
-7.74
-5.83
-6.78
-8.10
-7.92
-6.22
-4.80
-5.77
-9.82
-15.37
-19.35
-19.03
-13.61
-4.76
4.59
12.07
17.26
21.39
26.46
33.75
43.04
52.85
61.40
67.68
71.69
74.05
75.30
75.58
74.65
72.30
68.45
63.23
56.95
50.02
42.92
36.03
29.68
24.07
19.18
14.89
11.02
7.49
4.30
1.45
-1.01
-3.10
-4.85
-6.32
-7.59
-8.68
-9.62
-10.37
-10.92
-11.31
-11.57
-11.74
-11.84
-11.87
-11.83
-11.71
-11.49
-11.21
-10.89
-10.55
-10.21
-9.86
-9.48
-9.07
-8.63
-8.16
-7.69
-7.22
-6.75
-6.32
-5.87
-5.43
-4.97
-4.50
-4.03
-3.56
-3.08
-2.52
-1.94
-1.36
-0.75
-0.15
0.49
1.13
1.80
2.49
3.22
3.96
4.74
5.55
6.41
7.31
8.25
9.25
10.32
11.47
12.67
13.89
15.10
16.27
17.38
18.50
19.69
21.06
22.63
24.37
26.14
27.73
28.93
29.53
29.42
28.52
26.81
24.30
20.93
16.66
11.49
5.53
-1.00
-7.72
-14.14
-19.75
-24.15
-27.28
-29.29
-30.54
-31.39
-32.03
-32.33
-31.84
-29.99
-26.48
-21.65
-16.24
-11.34
-7.93
-6.52
-6.87
-7.98
-8.61
-7.80
-5.71
-3.14
-1.27
-1.22
-3.49
-7.54
-11.90
-14.96
-15.45
-13.91
-11.33
-9.10
-8.73
-11.89
-19.91
-33.10
-49.86
-65.87
-75.48
-71.42
-48.75
-8.18
42.28
89.37
119.68
124.70
103.88
62.35
10.19
-42.14
-86.76
-119.00
-136.39
-137.85
-124.03
-89.94
-43.62
1.97
35.25
50.70
50.01
39.48
26.32
15.60
9.52
6.47
5.13
4.79
5.13
5.76
6.19
6.05
5.18
3.94
1.88
-0.51
-2.46
-3.53
-3.87
-4.11
-4.88
-6.63
-9.25
-12.86
-16.74
-20.01
-22.13
-23.30
-24.31
-25.97
-28.95
-33.17
-38.29
-43.29
-47.17
-49.52
-50.78
-52.05
-54.37
-58.42
-63.87
-69.47
-73.37
-73.87
-70.08
-62.19
-51.59
-38.90
-24.70
-8.77
9.60
31.12
55.97
83.79
113.81
143.91
172.00
194.40
206.20
202.82
182.30
147.08
103.93
61.71
28.08
6.80
-3.22
-6.06
-6.10
-5.85
-5.61
-4.63
-2.65
-0.53
0.30
-1.14
-4.75
-9.10
-12.34
-12.99
-10.95
-7.39
-4.10
-2.58
-3.37
-5.86
-8.53
-9.81
-8.80
-5.81
-2.08
0.77
1.69
0.59
-1.52
-3.09
-2.78
-0.17
3.93
7.91
10.14
9.83
7.44
4.59
3.21
4.62
8.74
14.21
19.07
21.53
20.72
16.74
10.20
1.79
-7.34
-15.11
-19.07
-17.66
-11.93
-5.82
-4.81
-12.54
-28.26
-46.32
-58.77
-59.42
-46.83
-24.99
-1.36
16.43
23.79
19.65
6.25
-12.08
-30.21
-43.35
-48.32
-44.05
-32.80
-18.28
-4.01
8.18
18.17
26.74
34.23
40.22
43.55
43.39
40.11
34.61
27.57
18.90
7.66
-6.47
-22.18
-35.94
-43.38
-41.34
-29.88
-12.51
4.55
15.94
19.37
16.06
9.42
2.85
-1.83
-4.76
-7.01
-9.33
-11.60
-13.05
-13.23
-12.44
-11.71
-12.16
-14.57
-18.68
-23.40
-27.22
-28.79
-27.54
-23.89
-19.10
-14.75
-12.18
-11.97
-13.81
-16.60
-18.94
-19.59
-17.88
-13.94
-8.52
-2.58
3.18
8.46
13.55
18.97
25.18
32.30
40.12
48.22
56.05
62.74
66.96
67.09
61.69
50.39
34.43
16.72
0.87
-10.11
-15.04
-14.86
-12.02
-9.20
-8.10
-8.97
-10.90
-12.67
-13.43
-13.02
-11.79
-10.23
-8.71
-7.33
-5.96
-4.49
-3.02
-1.88
-1.51
-2.24
-4.03
-6.42
-8.60
-9.74
-9.36
-7.63
-5.25
-3.17
-2.11
-2.22
-3.09
-4.03
-4.49
-4.30
-3.75
-3.27
-3.21
-3.59
-4.13
-4.45
-4.28
-3.58
-2.55
-1.47
-0.59
-0.04
0.24
0.35
0.32
0.04
-0.65
-1.85
-3.43
-5.02
-6.12
-6.31
-5.45
-3.81
-1.96
-0.57
-0.17
-0.96
-2.65
-4.63
-6.16
-6.76
-6.34
-5.24
-3.95
-2.89
-2.20
-1.74
-1.35
-1.04
-0.98
-1.38
-2.27
-3.30
-3.93
-3.64
-2.24
-0.00
2.47
4.48
5.52
5.45
4.51
3.12
1.67
0.34
-0.92
-2.22
-3.56
-4.75
-5.39
-5.16
-4.05
-2.49
-1.19
-0.79
-1.57
-3.26
-5.12
-6.27
-6.07
-4.38
-1.54
1.79
4.89
7.23
8.59
9.05
8.85
8.26
7.48
6.66
5.89
5.28
4.94
4.93
5.17
5.40
5.29
4.58
3.25
1.62
0.22
-0.47
-0.22
0.78
1.95
2.62
2.39
1.31
-0.07
-1.05
-1.13
-0.31
0.98
2.18
2.98
3.53
4.26
5.53
7.32
9.11
10.17
9.93
8.36
5.98
3.62
1.99
1.34
1.39
1.55
1.25
0.24
-1.29
-2.82
-3.72
-3.62
-2.53
-0.91
0.60
1.43
1.33
0.50
-0.60
-1.46
-1.74
-1.37
-0.47
0.75
2.13
3.56
4.92
6.00
6.51
6.23
5.11
3.40
1.56
0.15
-0.43
-0.07
0.98
2.16
2.86
2.58
1.12
-1.29
-4.04
-6.40
-7.70
-7.62
-6.26
-4.03
-1.46
1.02
3.25
5.20
6.86
8.08
8.60
8.19
6.89
5.03
3.19
1.90
1.40
1.51
1.82
1.90
1.51
0.76
-0.05
-0.58
-0.68
-0.42
-0.05
0.18
0.12
-0.20
-0.57
-0.81
-0.90
-0.94
-1.18
-1.75
-2.56
-3.28
-3.49
-2.90
-1.58
0.05
1.42
2.10
2.06
1.66
1.36
1.47
1.91
2.29
2.20
1.42
0.09
-1.34
-2.35
-2.57
-2.01
-0.97
0.11
0.86
1.14
1.03
0.71
0.35
-0.01
-0.45
-1.01
-1.60
-1.94
-1.67
-0.54
1.34
3.48
5.17
5.75
5.02
3.25
1.19
-0.35
-0.80
-0.07
1.47
3.15
4.37
4.84
4.57
3.84
2.96
2.11
1.31
0.48
-0.39
-1.28
-1.99
-2.35
-2.25
-1.73
-0.98
-0.28
0.13
0.12
-0.24
-0.76
-1.15
-1.18
-0.73
0.12
1.18
2.23
3.14
3.89
4.48
4.88
4.92
4.47
3.48
2.21
1.10
0.57
0.80
1.59
2.44
2.83
2.52
1.65
0.67
0.12
0.36
1.42
3.00
4.56
5.56
5.64
4.80
3.35
1.82
0.65
-0.00
-0.30
-0.51
-0.78
-0.91
-0.47
0.86
2.95
5.15
6.58
6.54
4.97
2.41
-0.20
-2.06
-2.83
-2.76
-2.40
-2.23
-2.39
-2.57
-2.25
-1.03
1.08
3.63
5.84
7.00
6.79
5.40
3.53
1.99
1.42
1.98
3.37
5.04
6.43
7.19
7.24
6.75
5.94
4.98
3.93
2.82
1.79
1.10
1.17
2.28
4.48
7.41
10.52
13.31
15.58
17.41
19.02
20.42
21.31
21.22
19.79
17.05
13.50
9.89
7.02
5.54
5.90
8.18
11.88
15.76
18.09
17.27
12.67
5.11
-3.59
-11.52
-17.65
-22.04
-25.24
-27.41
-27.79
-25.15
-18.83
-9.57
0.48
8.69
13.28
13.89
11.64
8.18
4.80
2.03
-0.13
-1.70
-2.39
-1.73
0.44
3.74
7.25
9.92
11.00
10.37
8.51
6.34
4.83
4.42
5.22
7.08
9.79
13.16
16.91
20.82
24.74
28.70
32.22
35.03
37.27
39.56
42.62
46.72
51.39
55.53
57.95
56.57
50.39
40.19
28.38
18.01
11.17
8.29
8.16
8.67
5.32
-5.66
-25.76
-53.38
-84.49
-114.71
-141.03
-162.80
-181.78
-204.03
-235.27
-278.00
-329.87
-384.91
-436.33
-479.05
-510.53
-512.63
-473.68
-392.79
-282.66
-163.12
-51.27
43.23
117.28
171.63
208.99
230.26
237.05
232.52
221.43
208.90
198.37
190.95
186.00
182.34
177.06
168.35
156.38
143.23
131.69
123.42
118.33
115.11
112.28
107.76
100.63
91.68
82.69
75.64
71.36
69.16
67.56
64.84
58.79
47.56
30.79
9.61
-12.45
-30.32
-39.10
-36.16
-22.74
-3.77
13.04
21.56
19.67
9.61
-3.87
-16.20
-25.00
-30.41
-33.97
-37.08
-39.94
-41.90
-42.15
-40.63
-38.04
-35.44
-34.00
-34.22
-35.86
-38.15
-40.09
-40.60
-39.24
-35.81
-30.44
-23.44
-14.96
-4.42
8.84
24.82
42.33
58.94
71.90
79.55
82.06
81.48
80.48
80.64
81.52
80.97
76.46
66.23
51.48
34.71
18.66
4.98
-6.02
-14.93
-22.31
-28.22
-32.22
-33.90
-33.53
-31.75
-29.71
-28.42
-28.40
-29.54
-31.28
-32.88
-33.71
-33.80
-33.42
-33.18
-33.58
-34.85
-36.82
-39.09
-41.20
-42.88
-44.26
-45.62
-47.37
-49.69
-52.50
-55.48
-58.22
-60.41
-61.99
-63.11
-63.89
-64.28
-63.77
-61.49
-56.49
-48.12
-36.21
-21.29
-4.50
12.89
29.85
45.94
61.21
75.98
90.33
103.86
115.60
124.43
129.57
130.99
129.46
126.37
123.18
121.18
121.38
124.41
130.20
137.40
143.00
142.74
132.58
110.65
78.66
41.85
7.18
-19.25
-34.31
-38.52
-35.12
-27.93
-19.91
-12.49
-6.01
-0.82
2.36
2.63
-0.24
-5.15
-9.74
-11.36
-8.43
-1.48
6.63
12.19
12.39
6.77
-2.55
-11.80
-17.37
-17.29
-11.73
-2.78
7.02
15.65
22.11
26.27
28.42
28.80
27.33
25.10
22.36
19.29
15.98
12.45
8.60
4.26
-0.78
-6.55
-12.76
-19.05
-24.89
-29.99
-34.44
-38.73
-43.40
-48.80
-54.80
-60.94
-66.86
-72.36
-77.58
-82.87
-88.51
-94.52
-100.61
-106.30
-111.21
-115.30
-118.77
-121.83
-124.52
-126.54
-127.36
-126.47
-123.73
-119.50
-114.62
-109.92
-105.82
-102.01
-97.62
-91.62
-83.38
-72.87
-60.70
-47.69
-34.33
-20.58
-5.93
10.22
28.09
47.25
66.72
85.42
102.62
118.31
133.04
147.36
161.28
174.00
184.29
191.44
196.11
200.55
207.74
219.70
235.89
252.61
264.00
264.25
250.07
222.12
184.56
143.04
102.40
65.26
32.24
3.35
-21.00
-40.13
-54.47
-66.66
-80.82
-99.92
-122.61
-142.24
-149.53
-138.12
-109.52
-74.17
-47.07
-40.36
-57.20
-90.45
-126.94
-154.19
-165.70
-162.05
-148.08
-128.85
-107.09
-83.52
-58.66
-34.61
-15.03
-3.47
-1.30
-6.80
-15.82
-23.64
-26.97
-25.12
-19.97
-14.92
-13.33
-17.22
-26.52
-39.15
-51.74
-60.63
-63.01
-57.67
-45.39
-28.71
-11.20
3.64
13.45
17.62
17.28
14.51
11.35
8.88
6.75
3.30
-3.56
-14.93
-29.66
-43.79
-51.28
-46.08
-24.88
10.68
53.59
93.11
118.45
122.35
103.48
66.58
20.42
-25.21
-62.36
-86.90
-99.12
-102.29
-100.90
-98.76
-97.80
-98.12
-98.85
-99.01
-98.58
-98.77
-100.73
-104.86
-110.71
-117.29
-123.71
-129.44
-133.70
-135.63
-134.78
-130.85
-124.56
-117.99
-113.89
-114.56
-120.94
-131.78
-138.92
-135.09
-115.74
-82.03
-41.03
-2.40
26.29
40.01
42.44
39.67
37.39
40.40
51.46
70.94
97.73
129.24
162.38
194.85
224.46
248.65
264.94
271.16
266.57
253.00
235.65
220.81
213.51
214.79
221.33
227.48
227.52
218.20
194.78
158.57
115.82
75.23
43.42
22.33
9.72
1.63
-5.10
-11.80
-17.54
-21.25
-22.90
-23.77
-25.65
-29.68
-35.87
-43.21
-50.22
-54.92
-56.20
-54.02
-49.42
-43.77
-38.07
-32.80
-27.91
-23.30
-18.54
-13.69
-9.35
-6.52
-6.14
-8.67
-13.82
-21.24
-30.28
-39.77
-48.66
-56.15
-61.68
-65.03
-66.05
-64.67
-60.31
-53.34
-44.11
-33.04
-20.83
-8.44
2.94
12.25
18.72
22.18
23.10
22.60
21.93
22.05
23.20
24.87
26.16
26.15
24.51
21.65
18.67
16.81
16.88
18.87
21.90
24.77
26.30
25.60
22.04
15.31
5.81
-4.83
-13.61
-17.18
-12.90
-0.54
16.99
34.54
46.80
50.16
44.68
33.11
19.16
5.77
-5.71
-15.00
-22.00
-26.24
-27.11
-24.60
-19.98
-15.46
-13.16
-14.06
-17.46
-21.11
-22.61
-20.63
-15.54
-9.47
-5.09
-4.29
-7.34
-12.49
-17.12
-18.66
-15.67
-7.88
3.81
17.39
29.44
35.20
30.37
13.18
-13.48
-41.85
-61.89
-65.81
-51.91
-25.16
3.88
25.49
35.00
33.83
27.21
20.35
15.56
11.97
7.52
1.16
-5.92
-11.25
-12.73
-9.96
-4.61
0.63
3.14
1.82
-2.71
-8.39
-12.87
-14.63
-13.51
-10.67
-7.94
-6.92
-8.30
-11.71
-15.94
-19.63
-21.88
-22.59
-22.38
-22.20
-22.88
-24.74
-27.63
-30.96
-34.14
-36.77
-38.80
-40.46
-42.00
-43.69
-45.61
-47.63
-49.38
-50.41
-50.18
-48.02
-43.26
-35.25
-23.52
-7.96
10.96
32.27
54.63
76.60
96.88
114.44
128.66
138.95
144.74
145.48
140.74
130.38
114.78
95.00
72.13
48.71
26.86
7.94
-7.65
-20.15
-30.47
-39.65
-48.38
-56.72
-63.65
-67.14
-64.39
-53.13
-33.28
-7.95
16.36
31.86
32.59
17.33
-9.97
-41.48
-68.36
-83.54
-83.58
-68.84
-42.82
-11.09
19.98
44.42
57.92
59.21
50.31
35.16
17.54
-0.22
-17.77
-35.13
-51.57
-64.88
-72.00
-69.85
-56.86
-34.10
-4.93
24.38
45.86
51.83
37.78
5.42
-36.73
-75.66
-98.46
-97.28
-72.10
-30.18
17.18
58.65
86.06
95.50
86.93
63.31
29.92
-6.41
-38.16
-58.50
-63.69
-53.48
-30.99
-1.63
28.44
53.29
67.59
67.58
52.18
24.53
-8.43
-37.12
-52.25
-47.85
-23.77
14.15
55.72
89.73
107.31
104.46
82.89
49.11
12.25
-19.07
-38.17
-42.82
-35.04
-19.35
-0.63
17.46
33.11
45.89
55.46
61.27
62.37
58.43
50.05
38.63
25.98
13.04
-0.68
-17.21
-39.17
-67.92
-101.56
-134.48
-158.09
-165.63
-154.91
-129.31
-96.13
-62.87
-34.29
-11.74
5.81
18.48
24.25
20.49
6.66
-13.75
-33.64
-45.15
-43.77
-30.41
-10.44
9.52
24.73
34.13
39.30
42.55
45.11
46.65
46.17
43.03
37.65
31.45
26.34
23.61
23.36
24.48
25.19
24.04
20.47
15.30
10.09
6.60
5.83
7.49
10.16
11.90
11.30
8.03
3.12
-1.53
-4.22
-4.02
-1.30
2.54
5.87
7.44
6.40
2.43
-4.13
-11.74
-17.43
-17.15
-7.23
13.52
42.63
73.90
99.81
114.45
115.73
105.65
88.66
69.24
49.66
31.30
14.03
-2.09
-16.06
-26.44
-32.29
-33.95
-32.97
-31.26
-30.37
-30.94
-32.43
-33.69
-33.60
-31.65
-28.20
-24.25
-20.97
-19.05
-18.66
-19.23
-19.85
-19.70
-18.39
-16.12
-13.52
-11.28
-9.87
-9.39
-9.53
-9.80
-9.72
-9.12
-8.11
-6.99
-6.14
-5.76
-5.90
-6.36
-6.90
-7.30
-7.49
-7.56
-7.71
-8.15
-8.96
-10.10
-11.40
-12.65
-13.70
-14.56
-15.44
-16.64
-18.46
-20.99
-24.03
-27.15
-29.85
-31.80
-33.03
-34.00
-35.36
-37.68
-41.12
-45.21
-49.03
-51.51
-51.82
-49.74
-45.58
-39.97
-33.32
-25.68
-16.50
-5.12
8.71
24.57
41.60
58.96
76.17
92.81
107.79
118.83
122.62
116.16
98.51
72.05
42.18
15.40
-3.15
-11.63
-11.64
-6.88
-1.06
3.55
6.30
7.31
6.56
3.61
-1.75
-8.48
-14.04
-15.36
-10.66
-1.37
7.49
9.13
-1.72
-25.43
-56.16
-83.46
-96.20
-87.06
-55.42
-7.44
46.08
93.42
124.97
135.33
123.84
93.88
51.44
3.41
-43.80
-84.95
-115.90
-133.33
-134.83
-119.58
-89.59
-50.26
-9.64
23.83
44.09
49.49
42.88
29.67
15.80
5.49
0.38
0.15
4.10
12.31
25.72
44.76
67.73
89.74
103.27
100.86
78.58
38.71
-10.02
-54.98
-84.09
-90.13
-73.23
-40.48
-3.01
28.46
47.26
52.45
48.11
40.61
35.81
36.99
43.99
54.05
63.42
68.53
66.60
55.82
35.35
6.18
-28.24
-62.10
-88.48
-101.37
-98.11
-80.46
-53.35
-24.42
-1.03
12.08
13.45
4.07
-13.73
-37.24
-63.20
-87.73
-106.87
-117.34
-117.24
-106.10
-85.69
-58.74
-29.80
-5.24
8.19
6.08
-10.54
-34.57
-55.39
-63.46
-54.49
-31.07
-0.26
30.96
59.25
85.65
112.93
141.68
167.98
184.30
182.80
159.30
115.38
57.62
-4.51
-61.59
-106.09
-133.06
-139.74
-125.18
-90.39
-38.94
22.41
83.61
132.33
156.37
147.27
103.88
34.32
-45.25
-115.22
-158.75
-167.00
-141.44
-92.60
-35.94
13.01
43.06
49.98
36.88
12.64
-11.28
-24.80
-22.45
-4.85
22.03
49.56
69.65
77.21
70.94
52.49
25.38
-6.00
-36.78
-61.91
-76.79
-78.56
-67.16
-45.78
-20.01
3.89
21.07
29.32
29.33
23.79
16.07
8.89
3.57
-0.02
-3.02
-6.77
-11.95
-17.86
-22.31
-22.20
-14.78
0.93
23.36
48.64
71.83
88.57
96.20
94.40
84.79
70.16
53.69
38.05
24.57
12.62
-0.20
-16.90
-38.99
-64.83
-89.41
-106.03
-109.40
-98.08
-74.90
-45.12
-13.69
16.47
44.24
68.47
86.52
94.37
88.44
68.02
36.29
-0.50
-35.57
-64.11
-84.26
-96.40
-101.57
-99.90
-90.42
-72.07
-45.32
-13.16
19.09
45.23
60.24
61.76
50.90
31.59
9.18
-10.70
-23.06
-23.73
-9.73
19.73
61.96
110.08
153.83
181.83
184.90
159.38
108.46
41.77
-27.42
-85.92
-124.03
-137.32
-126.44
-95.68
-51.21
-0.25
49.38
89.55
112.81
113.84
90.86
46.66
-11.80
-74.64
-131.40
-173.23
-194.38
-192.83
-170.11
-130.88
-81.92
-31.34
12.66
42.91
54.52
45.91
19.40
-18.71
-59.45
-93.02
-111.12
-108.77
-85.38
-44.70
5.87
56.75
98.54
124.30
131.58
122.66
103.18
79.30
55.16
32.06
9.11
-14.29
-36.97
-55.62
-66.28
-66.39
-56.01
-37.53
-14.16
11.58
38.46
65.82
92.25
114.67
128.41
128.61
112.13
79.28
34.47
-14.58
-58.80
-90.55
-105.73
-104.44
-90.11
-67.56
-41.35
-15.13
7.96
24.72
32.14
28.74
16.44
1.41
-7.57
-2.34
20.47
57.26
98.37
131.54
146.29
137.04
104.19
53.14
-7.60
-68.27
-119.64
-154.38
-168.02
-159.66
-131.83
-89.92
-40.95
7.67
49.18
78.22
91.53
88.23
69.71
39.12
0.44
-42.07
-83.80
-119.62
-143.79
-151.06
-138.55
-107.27
-62.43
-11.98
35.92
75.34
103.56
120.39
126.97
124.38
113.49
95.47
72.40
47.11
22.33
-0.24
-20.23
-37.82
-52.66
-63.06
-66.50
-61.36
-48.56
-32.11
-17.81
-10.68
-12.82
-22.60
-35.84
-47.88
-55.18
-55.80
-48.76
-33.41
-9.52
21.86
57.52
92.08
119.09
132.86
130.34
112.05
81.90
45.82
10.21
-19.81
-41.21
-52.97
-55.32
-48.67
-33.12
-8.82
22.84
58.26
91.38
114.97
122.65
111.12
81.32
38.40
-9.62
-53.93
-87.15
-105.13
-107.78
-98.79
-83.94
-68.86
-56.98
-48.59
-41.65
-33.61
-23.30
-11.76
-1.56
4.76
6.35
4.46
1.76
0.78
2.65
6.55
10.23
11.41
8.95
3.61
-2.37
-6.30
-6.33
-2.21
4.65
12.01
17.74
20.54
20.15
16.99
11.85
5.50
-1.20
-7.26
-11.60
-13.22
-11.56
-6.71
0.58
9.07
17.28
23.60
26.53
24.78
17.58
5.06
-11.27
-28.40
-42.23
-48.73
-45.39
-32.57
-13.85
4.88
17.42
19.69
11.28
-4.28
-21.07
-33.26
-37.42
-33.73
-25.52
-17.51
-13.55
-15.00
-20.24
-25.57
-26.94
-21.79
-10.13
5.49
21.02
32.53
37.64
36.29
30.59
23.87
19.38
19.06
22.89
28.94
34.36
36.55
34.38
28.56
21.17
14.69
10.80
9.81
10.84
12.51
13.71
13.96
13.25
11.65
9.17
5.82
1.87
-1.97
-4.83
-6.14
-6.09
-5.71
-6.41
-9.18
-13.88
-19.02
-22.36
-21.87
-16.98
-9.12
-1.39
2.59
0.36
-8.22
-20.56
-32.25
-38.67
-36.88
-26.72
-10.82
6.31
20.00
26.90
25.89
18.09
6.18
-6.60
-17.36
-24.05
-25.71
-22.47
-15.53
-6.94
0.75
5.16
4.89
0.11
-7.36
-14.59
-18.75
-18.11
-12.73
-4.27
4.81
12.30
16.99
18.84
18.56
16.93
14.27
10.39
4.93
-2.03
-9.61
-16.21
-20.07
-19.96
-15.81
-8.83
-1.22
4.51
6.18
2.57
-5.98
-17.37
-27.66
-32.08
-26.59
-9.87
15.35
42.48
62.91
69.13
57.71
30.92
-3.73
-36.00
-56.54
-60.10
-47.17
-23.31
3.51
26.30
41.64
50.25
55.32
59.64
63.45
64.30
58.89
45.81
27.18
8.27
-5.06
-9.13
-4.04
6.72
18.29
26.61
29.51
26.50
18.07
4.92
-11.84
-30.22
-47.09
-58.76
-62.38
-57.25
-45.71
-32.65
-23.92
-24.20
-34.97
-53.47
-72.84
-83.88
-78.15
-51.54
-6.79
46.15
92.57
117.72
112.19
75.74
17.85
-45.28
-96.16
-121.57
-116.07
-82.71
-30.89
27.06
79.11
115.61
130.25
120.45
87.77
38.22
-18.31
-69.86
-105.63
-119.36
-111.20
-87.13
-56.09
-26.42
-3.09
12.88
23.23
30.38
35.73
39.31
40.20
37.63
31.90
24.98
20.31
21.73
31.81
50.00
72.21
91.81
102.23
99.71
84.72
61.19
34.19
7.39
-18.00
-42.31
-65.55
-85.92
-100.01
-104.36
-97.48
-80.87
-58.35
-34.33
-11.99
7.54
24.77
40.36
53.65
62.25
63.02
54.02
36.28
14.30
-5.44
-17.19
-18.79
-12.62
-4.35
0.04
-2.79
-12.28
-25.00
-37.06
-46.06
-51.37
-52.79
-49.04
-37.93
-18.18
7.90
33.57
49.50
47.94
26.86
-8.37
-47.00
-77.40
-91.46
-86.90
-66.37
-34.92
2.48
41.79
79.11
109.59
127.22
126.29
103.66
61.10
6.12
-49.53
-93.19
-115.47
-113.43
-91.39
-58.91
-26.92
-3.41
9.31
14.88
20.80
34.66
60.72
97.65
138.81
174.51
195.54
196.09
175.17
136.43
86.74
34.47
-12.12
-46.32
-64.53
-67.47
-60.30
-51.10
-47.55
-53.52
-67.29
-82.70
-92.68
-93.21
-85.20
-73.39
-63.18
-57.57
-56.02
-55.67
-53.51
-48.14
-39.87
-29.85
-18.73
-6.37
7.61
22.48
36.00
44.98
46.78
40.97
29.90
17.94
9.63
7.70
11.85
19.13
25.54
28.17
26.64
23.11
20.84
22.12
26.71
31.70
32.89
27.13
14.31
-1.93
-15.18
-18.82
-8.96
13.52
42.49
68.27
80.47
71.68
40.44
-7.67
-61.23
-106.20
-130.21
-126.46
-95.85
-46.87
7.06
51.67
76.32
77.02
57.11
25.26
-8.30
-35.59
-53.11
-61.76
-64.81
-65.29
-64.29
-60.84
-53.40
-41.67
-27.46
-14.11
-4.74
-0.56
-0.20
-0.51
1.43
6.55
13.34
19.10
21.86
21.87
21.26
22.27
25.29
28.04
26.67
18.17
2.61
-16.15
-31.74
-38.03
-32.11
-15.89
4.31
20.29
25.53
18.23
2.37
-13.96
-22.34
-18.08
-2.43
18.23
35.99
45.63
46.87
43.69
41.07
41.28
42.24
38.86
26.47
4.23
-23.60
-49.60
-67.13
-73.92
-73.29
-72.02
-76.04
-86.56
-98.90
-104.81
-97.38
-75.53
-45.49
-18.49
-5.31
-10.92
-31.70
-56.63
-72.05
-67.80
-41.55
0.34
45.72
81.87
100.41
99.97
85.57
65.51
47.41
35.42
29.47
26.70
24.02
20.12
15.99
14.05
16.31
23.01
32.38
41.70
48.82
53.36
56.61
60.32
65.08
69.38
70.07
64.02
50.01
29.79
7.68
-11.36
-23.95
-29.68
-30.88
-30.89
-31.94
-33.88
-34.72
-32.45
-27.13
-21.52
-20.05
-26.12
-39.70
-56.66
-70.36
-74.99
-68.61
-54.12
-37.52
-24.67
-18.05
-15.94
-13.82
-7.19
5.89
24.15
44.18
62.38
76.48
85.61
89.44
87.31
78.22
61.77
39.18
13.62
-10.59
-29.54
-41.12
-45.44
-44.41
-40.66
-36.52
-33.43
-31.87
-31.61
-32.00
-32.15
-31.28
-28.90
-24.91
-19.49
-12.75
-4.54
5.24
16.23
27.16
36.06
40.97
40.87
36.27
29.04
21.59
15.79
12.27
10.35
8.57
5.64
1.28
-3.58
-7.21
-8.08
-5.67
-1.05
3.54
5.72
4.19
-0.47
-6.09
-10.00
-10.63
-8.30
-4.95
-2.89
-3.35
-5.72
-8.07
-8.28
-5.48
-0.64
3.93
5.90
4.23
-0.22
-5.17
-8.22
-8.14
-5.43
-1.94
0.27
0.06
-2.21
-5.00
-6.47
-5.42
-1.90
3.05
7.86
11.32
13.08
13.58
13.82
14.65
16.29
18.16
19.15
18.18
14.87
9.73
3.98
-1.00
-4.39
-6.13
-6.84
-7.33
-8.10
-9.10
-9.88
-9.97
-9.23
-8.03
-7.08
-7.01
-7.89
-9.14
-9.63
-8.29
-4.77
0.18
4.94
7.77
7.84
5.84
3.61
3.13
5.25
9.08
12.39
12.92
9.81
4.20
-1.36
-4.34
-3.74
-0.66
2.41
3.05
0.44
-4.29
-8.66
-10.46
-8.96
-5.26
-1.62
-0.06
-1.15
-3.73
-5.67
-5.07
-1.50
3.77
8.60
11.03
10.35
7.34
3.77
1.31
0.72
1.51
2.34
1.88
-0.33
-3.61
-6.46
-7.50
-6.17
-3.14
0.02
1.64
0.98
-1.43
-4.04
-5.20
-4.15
-1.49
1.18
2.23
1.00
-1.70
-4.15
-4.65
-2.58
1.09
4.34
5.25
3.07
-1.13
-4.88
-5.55
-1.83
5.40
13.28
18.16
17.44
10.73
0.02
-11.28
-19.93
-24.10
-23.74
-20.05
-14.62
-8.54
-2.23
4.24
10.65
16.30
20.22
21.56
20.06
16.33
11.66
7.48
4.80
3.85
3.97
4.12
3.51
2.08
0.65
0.42
2.05
5.09
7.94
8.68
6.18
1.01
-4.71
-8.27
-7.74
-3.04
4.05
10.95
15.47
16.92
16.14
14.81
14.38
15.24
16.70
17.45
16.46
13.63
9.95
7.08
6.46
8.45
12.06
15.18
15.75
12.87
7.31
1.27
-2.97
-4.18
-2.78
-0.35
1.55
2.36
2.75
3.81
6.03
8.60
9.80
8.07
3.05
-4.07
-11.17
-16.30
-18.65
-18.85
-18.49
-19.29
-22.28
-27.17
-32.49
-36.10
-36.13
-31.87
-24.23
-15.42
-7.95
-3.39
-1.70
-1.33
-0.28
2.56
6.79
10.81
13.14
13.50
13.30
14.79
19.78
28.30
38.29
46.39
49.50
46.35
38.19
28.44
20.84
17.79
19.07
21.94
22.61
18.34
9.23
-1.34
-8.34
-8.18
-1.23
7.96
13.02
9.48
-2.89
-20.49
-38.76
-55.08
-69.85
-84.44
-98.25
-107.26
-105.83
-90.82
-65.20
-38.06
-20.61
-20.67
-38.82
-68.57
-100.29
-125.75
-140.15
-142.83
-135.35
-119.16
-94.63
-61.83
-21.84
22.33
66.15
104.90
135.24
155.81
168.45
176.77
184.40
193.21
203.09
212.52
219.37
222.06
219.62
211.61
197.39
175.59
145.14
106.31
61.32
13.67
-32.20
-73.74
-110.99
-144.87
-175.59
-201.00
-217.65
-223.47
-220.11
-213.05
-208.49
-211.23
-218.60
-223.47
-218.73
-201.46
-174.56
-144.40
-116.77
-94.00
-74.62
-55.00
-33.23
-10.54
9.57
23.92
32.16
36.43
40.02
45.06
51.49
57.01
58.90
56.24
50.46
44.69
41.85
43.09
47.28
51.90
54.55
54.16
51.56
48.60
47.07
47.36
48.43
48.67
46.96
43.38
39.24
36.25
35.42
36.52
37.92
37.69
34.59
28.89
22.30
17.06
14.88
15.93
18.86
21.50
21.99
19.77
15.85
12.17
10.57
11.57
14.07
15.90
15.03
10.82
4.57
-1.21
-4.00
-2.72
1.63
6.66
9.79
9.57
6.45
2.27
-0.83
-1.58
-0.34
1.46
2.02
0.43
-2.70
-5.69
-6.48
-4.03
0.98
6.46
9.88
9.66
6.05
1.11
-2.55
-3.16
-1.06
1.70
2.47
-0.19
-5.40
-10.50
-12.53
-10.16
-4.73
0.50
2.38
-0.27
-5.69
-10.28
-10.77
-6.30
0.87
6.81
8.03
3.79
-3.47
-9.63
-11.12
-7.08
0.18
6.50
8.26
4.54
-2.44
-8.63
-10.51
-7.11
-0.58
5.34
7.45
5.02
0.09
-3.93
-4.24
-0.36
5.70
10.75
12.26
9.67
4.57
-0.35
-2.86
-2.23
0.43
3.10
3.82
1.95
-1.58
-4.81
-5.83
-3.88
0.16
4.30
6.46
5.57
2.30
-1.42
-3.37
-2.31
1.26
5.38
7.70
6.90
3.42
-0.79
-3.42
-3.03
0.09
4.24
7.36
8.05
6.45
3.93
2.16
2.13
3.50
4.89
4.78
2.53
-1.13
-4.46
-5.76
-4.31
-0.94
2.43
3.92
2.68
-0.49
-3.63
-4.90
-3.57
-0.54
2.32
3.23
1.65
-1.48
-4.28
-5.09
-3.41
-0.16
2.88
4.14
3.07
0.48
-1.99
-2.88
-1.71
0.82
3.29
4.31
3.41
1.27
-0.79
-1.60
-0.84
0.74
1.83
1.36
-0.87
-3.90
-5.97
-5.61
-2.41
2.57
7.14
9.17
7.64
3.25
-1.85
-5.34
-5.90
-3.89
-1.12
0.19
-1.24
-4.99
-9.29
-12.02
-11.93
-9.29
-5.65
-2.86
-2.18
-3.53
-5.76
-7.32
-7.13
-5.10
-2.34
-0.30
-0.10
-1.71
-3.82
-4.64
-2.75
1.88
7.82
12.72
14.61
13.04
9.49
6.48
6.06
8.51
11.89
13.40
11.09
5.52
-0.42
-3.20
-0.88
5.45
12.20
15.23
12.36
4.81
-3.42
-7.93
-6.43
-0.19
6.59
9.45
6.00
-2.40
-11.51
-16.65
-15.17
-8.14
0.55
6.31
6.47
1.64
-4.75
-8.73
-8.08
-3.51
1.66
3.74
0.82
-5.86
-12.68
-15.56
-12.37
-4.27
4.95
10.87
10.93
5.79
-1.15
-5.82
-5.72
-1.60
3.22
4.88
1.38
-6.11
-13.81
-17.41
-14.59
-6.32
3.53
10.36
11.25
6.52
-0.55
-5.69
-6.05
-1.72
4.52
8.99
9.30
5.55
0.15
-3.73
-4.00
-0.76
3.80
6.75
6.07
1.93
-3.54
-7.24
-6.81
-2.16
4.53
9.83
11.03
7.58
1.55
-3.45
-4.38
-0.43
6.26
12.07
13.70
10.27
3.69
-2.47
-4.98
-2.87
2.05
6.28
6.88
3.05
-3.17
-8.09
-8.62
-4.03
3.36
9.58
11.05
6.87
-0.85
-8.16
-11.49
-9.88
-5.36
-1.69
-1.87
-6.41
-12.72
-16.81
-15.61
-8.83
0.68
8.63
11.59
8.89
2.94
-2.41
-4.17
-1.89
2.13
4.41
2.52
-3.26
-9.89
-13.31
-10.87
-2.99
6.86
14.04
15.19
10.17
2.03
-4.85
-7.16
-4.59
0.23
3.41
2.08
-3.63
-10.64
-14.57
-12.35
-4.05
6.92
15.48
17.70
12.73
3.41
-5.41
-9.49
-7.54
-1.57
4.37
6.55
3.92
-1.51
-5.92
-6.14
-1.58
5.41
10.78
11.39
6.69
-0.92
-7.45
-9.67
-7.09
-2.13
1.38
0.34
-5.37
-12.96
-17.98
-17.07
-9.82
0.82
9.94
13.50
10.25
2.50
-5.07
-8.13
-5.12
1.99
8.93
11.46
8.18
1.11
-5.39
-7.24
-3.12
4.89
12.47
15.65
13.08
6.55
-0.28
-4.03
-3.51
-0.02
3.80
5.60
4.62
1.76
-1.07
-2.27
-1.34
0.79
2.34
1.65
-1.73
-6.56
-10.35
-10.43
-5.71
2.57
11.14
16.38
16.14
11.02
4.03
-1.16
-2.35
-0.03
3.22
4.22
1.48
-3.87
-8.81
-10.21
-6.75
0.07
6.70
9.68
7.37
0.99
-6.05
-10.16
-9.45
-4.85
0.66
3.53
1.89
-3.40
-9.32
-12.17
-9.89
-3.30
4.16
8.51
7.29
1.23
-6.07
-10.30
-8.84
-2.59
4.74
8.60
6.59
-0.08
-7.33
-10.55
-7.43
0.74
9.63
14.61
13.21
6.59
-1.30
-6.08
-5.49
-0.84
4.13
5.33
1.11
-6.73
-13.87
-15.93
-11.10
-1.30
8.60
13.72
11.67
3.92
-5.03
-10.28
-9.29
-3.24
3.91
7.68
5.87
-0.32
-6.94
-9.69
-6.43
1.61
10.31
15.23
13.99
7.63
-0.13
-5.08
-4.93
-0.73
4.09
5.68
2.28
-4.72
-11.38
-13.64
-9.55
-0.74
8.37
13.07
10.89
3.00
-6.46
-12.62
-12.52
-6.55
1.96
8.72
10.93
8.61
4.40
1.64
2.31
5.83
9.28
9.39
4.51
-4.14
-12.95
-17.78
-16.19
-9.01
0.07
6.42
7.03
2.13
-4.88
-9.53
-8.87
-3.29
3.65
7.39
5.04
-2.60
-11.51
-16.65
-14.92
-6.90
3.38
10.77
11.90
6.95
-0.52
-6.00
-6.53
-2.27
3.71
7.54
6.86
2.32
-2.99
-5.36
-2.66
4.29
12.21
16.95
15.88
9.29
0.39
-6.60
-8.71
-5.80
-0.62
2.97
2.17
-2.97
-9.72
-14.26
-13.91
-8.68
-1.20
4.74
6.48
3.79
-0.85
-3.97
-3.16
1.73
8.46
13.76
15.15
12.36
7.27
2.82
1.29
2.91
6.01
7.95
6.80
2.63
-2.46
-5.78
-5.62
-2.41
1.35
2.52
-0.79
-7.97
-15.98
-20.88
-19.93
-13.09
-3.11
5.78
10.05
8.57
3.21
-2.50
-5.27
-3.73
0.83
5.38
7.13
4.94
0.17
-4.35
-5.80
-3.23
2.03
7.11
9.07
6.82
1.75
-3.16
-4.86
-2.08
3.78
9.48
11.77
9.14
2.83
-3.88
-7.57
-6.66
-2.32
2.30
3.88
1.00
-4.83
-10.18
-11.69
-8.13
-1.36
4.73
6.57
2.94
-4.07
-10.33
-11.95
-7.84
-0.31
6.28
7.92
3.47
-4.61
-11.73
-13.75
-9.27
-0.56
7.83
11.78
9.73
3.56
-2.56
-4.60
-1.06
6.30
13.51
16.61
13.96
7.03
-0.77
-5.83
-6.32
-3.04
1.43
4.37
4.31
1.84
-0.98
-1.79
0.36
4.49
8.09
8.56
4.78
-1.90
-8.32
-11.17
-8.91
-2.91
3.27
5.93
3.33
-3.22
-10.25
-14.00
-12.76
-7.60
-1.68
1.64
0.67
-3.59
-8.31
-10.45
-8.32
-2.74
3.63
7.73
7.85
4.46
-0.24
-3.32
-3.21
-0.35
3.07
4.56
2.89
-1.06
-4.79
-5.69
-2.51
3.64
10.03
13.61
12.88
8.64
3.43
0.18
0.45
3.55
7.00
7.95
4.97
-1.13
-7.59
-11.32
-10.40
-5.36
1.25
6.11
7.04
4.16
-0.46
-3.92
-4.22
-1.45
2.47
4.83
4.00
0.29
-4.10
-6.41
-4.92
-0.11
5.54
8.89
7.96
3.19
-2.86
-6.93
-6.92
-3.26
1.49
4.08
2.69
-1.96
-6.91
-8.93
-6.36
-0.36
5.72
8.35
5.80
-0.68
-7.51
-10.95
-9.05
-2.90
4.11
8.20
7.45
2.71
-2.86
-5.66
-3.82
1.82
8.11
11.55
10.12
4.50
-2.30
-6.81
-6.84
-2.87
2.40
5.58
4.53
-0.36
-6.34
-9.97
-9.02
-3.90
2.52
6.48
5.56
0.05
-7.05
-11.67
-10.92
-4.77
3.86
10.69
12.47
8.73
1.92
-4.02
-6.14
-3.94
0.31
3.23
2.41
-2.02
-7.35
-9.98
-7.53
-0.43
8.18
14.12
14.38
8.79
0.04
-7.80
-11.56
-10.46
-6.29
-2.23
-0.84
-2.60
-5.72
-7.38
-5.50
-0.14
6.46
11.07
11.42
7.47
1.47
-3.25
-4.40
-1.96
1.83
3.74
1.71
-3.86
-10.15
-13.61
-11.94
-5.50
2.77
9.05
10.66
7.53
2.08
-2.10
-2.46
1.27
6.98
11.46
12.17
8.73
2.95
-2.33
-4.77
-3.81
-0.76
2.18
3.23
2.06
-0.19
-1.55
-0.47
3.26
8.32
12.44
13.54
10.86
5.55
0.02
-3.16
-2.76
0.31
3.65
4.48
1.58
-3.97
-9.25
-11.13
-8.30
-2.32
3.28
4.94
1.29
-5.87
-12.57
-14.87
-11.29
-3.71
3.70
6.71
3.57
-3.96
-11.71
-15.31
-12.80
-5.67
2.24
6.91
6.47
2.05
-3.03
-5.28
-3.22
1.86
6.65
7.85
4.29
-2.46
-8.94
-11.79
-9.63
-3.93
2.11
5.22
4.09
-0.07
-4.33
-5.61
-2.75
3.03
8.66
11.15
9.22
4.09
-1.23
-3.73
-1.93
3.15
8.80
11.97
11.11
6.91
1.72
-1.77
-2.12
0.32
3.59
5.47
4.69
1.52
-2.26
-4.53
-3.85
-0.41
4.17
7.46
7.67
4.62
-0.25
-4.48
-6.18
-4.98
-2.29
-0.40
-0.87
-3.60
-6.50
-6.89
-3.25
3.47
10.20
13.31
10.73
3.40
-5.16
-10.80
-11.01
-6.33
0.00
4.09
3.64
-0.71
-5.79
-8.00
-5.52
0.48
6.49
8.75
5.52
-1.84
-9.45
-13.20
-11.01
-4.09
3.65
7.85
6.19
-0.29
-7.91
-12.44
-11.51
-6.06
0.49
4.29
3.21
-1.98
-8.17
-11.74
-10.65
-5.45
1.09
5.69
6.32
3.32
-0.89
-3.26
-1.90
2.89
8.44
11.52
10.11
4.64
-2.04
-6.35
-5.93
-1.14
5.25
9.77
10.14
6.83
2.53
0.59
2.91
8.59
14.31
16.34
12.61
4.11
-5.52
-11.91
-12.32
-7.26
-0.16
4.54
3.77
-2.24
-10.28
-15.99
-16.38
-11.27
-3.48
3.03
5.34
3.15
-1.23
-4.47
-4.12
-0.24
4.78
7.61
6.03
0.32
-6.99
-12.42
-13.50
-10.07
-4.30
0.68
2.50
1.01
-1.84
-3.15
-0.90
4.81
11.73
16.62
17.05
12.79
5.93
-0.14
-2.70
-1.08
2.95
6.23
6.12
2.25
-3.39
-7.50
-7.68
-3.78
1.93
5.97
5.84
1.48
-4.63
-8.97
-9.00
-4.73
1.26
5.28
4.66
-0.65
-8.05
-13.65
-14.47
-10.02
-2.53
4.23
7.17
5.47
1.06
-2.66
-2.92
0.85
6.74
11.66
13.07
10.55
5.79
1.56
-0.14
1.03
3.58
5.35
4.87
2.14
-1.37
-3.79
-3.95
-1.95
0.87
2.67
2.05
-0.97
-5.01
-7.88
-7.80
-4.38
0.95
5.71
7.69
6.13
2.33
-1.20
-2.23
-0.19
3.30
5.31
3.53
-2.16
-9.29
-13.99
-13.18
-6.52
3.17
11.21
13.54
8.96
-0.07
-8.87
-13.10
-11.31
-5.51
0.21
2.16
-0.65
-6.24
-10.88
-11.52
-7.47
-0.79
5.10
7.28
4.99
-0.09
-4.77
-6.15
-3.22
2.69
8.46
11.00
8.88
3.33
-2.50
-5.27
-3.38
1.85
7.21
9.20
6.37
0.14
-6.17
-9.07
-6.99
-1.11
5.36
9.11
8.52
4.73
0.73
-0.35
2.80
8.81
14.41
16.31
13.11
6.15
-1.38
-6.36
-7.49
-5.88
-4.13
-4.48
-7.38
-11.14
-13.04
-11.10
-5.27
2.33
8.57
10.77
8.25
2.63
-2.85
-5.04
-2.60
3.29
9.26
11.77
8.95
1.86
-5.95
-10.60
-9.95
-4.92
1.11
4.52
3.49
-0.78
-5.11
-6.41
-3.72
1.15
4.65
3.80
-1.92
-10.15
-16.76
-18.09
-13.04
-3.70
5.54
10.44
8.96
2.53
-4.90
-8.91
-7.19
-0.76
6.75
11.15
10.14
4.40
-2.67
-7.25
-7.12
-2.86
2.63
5.95
5.11
0.73
-4.42
-7.05
-5.26
0.24
6.39
9.63
7.78
1.47
-6.01
-10.58
-9.61
-3.47
4.65
10.59
11.54
7.70
2.07
-1.41
-0.33
4.74
10.40
12.64
9.21
1.23
-7.29
-11.81
-9.76
-2.20
6.83
12.55
12.06
5.96
-2.29
-8.49
-10.11
-7.67
-4.13
-2.92
-5.85
-11.88
-17.65
-19.47
-15.45
-6.66
3.31
10.17
11.41
7.37
1.12
-3.37
-3.57
0.56
6.61
11.32
12.36
9.67
5.25
1.76
1.09
3.16
6.25
8.06
7.12
3.82
0.08
-1.77
-0.38
3.62
7.86
9.57
7.23
1.47
-5.15
-9.48
-9.58
-5.86
-0.78
2.44
1.70
-2.83
-8.84
-13.12
-13.53
-10.13
-4.95
-0.94
-0.21
-2.77
-6.68
-9.19
-8.37
-4.31
0.90
4.28
3.81
-0.29
-5.59
-8.79
-7.63
-2.09
5.27
10.79
11.95
8.57
3.15
-0.83
-0.68
3.70
9.96
14.67
15.15
11.07
4.43
-1.42
-3.76
-1.89
2.56
6.64
7.76
5.20
0.45
-3.68
-4.76
-2.20
2.30
5.68
5.40
0.87
-6.07
-12.12
-14.51
-12.28
-6.82
-0.95
2.63
2.84
0.56
-2.10
-3.09
-1.71
1.08
3.41
3.68
1.68
-1.17
-2.62
-0.88
3.99
9.80
13.23
11.70
5.04
-4.07
-11.33
-13.04
-8.33
0.17
7.54
9.44
4.42
-5.06
-14.01
-17.95
-15.31
-8.30
-1.24
1.79
-0.45
-6.05
-11.21
-12.70
-9.47
-3.25
2.77
5.83
5.12
2.00
-0.94
-1.26
1.86
7.33
12.62
15.19
13.83
9.33
4.07
0.67
0.52
2.86
5.29
5.32
1.79
-4.13
-9.59
-11.77
-9.59
-4.50
0.29
1.58
-1.83
-8.27
-14.05
-15.52
-11.00
-1.81
8.45
15.82
18.04
15.50
10.78
6.98
5.96
7.52
9.89
10.94
9.62
6.37
2.71
0.19
-0.42
0.32
0.99
0.15
-2.78
-6.90
-10.07
-10.10
-6.09
0.57
6.47
7.86
2.84
-7.10
-17.62
-23.64
-22.26
-14.32
-4.11
3.29
4.69
0.62
-5.35
-8.95
-7.75
-2.51
3.74
7.46
6.94
3.08
-1.32
-3.27
-1.19
3.99
9.52
12.30
10.73
5.54
-0.29
-3.35
-1.65
4.22
11.18
15.37
14.22
8.04
-0.06
-5.89
-6.63
-2.34
3.90
8.03
7.27
1.71
-5.98
-12.19
-14.42
-12.53
-8.38
-4.52
-2.70
-2.96
-3.95
-3.99
-2.09
1.21
4.30
5.36
3.62
-0.09
-3.60
-4.66
-2.36
2.20
6.06
6.07
0.87
-8.03
-16.68
-20.75
-18.00
-9.49
0.83
8.18
9.62
5.51
-0.78
-4.93
-4.07
1.54
8.80
13.69
13.58
8.85
2.53
-1.63
-1.25
3.20
8.86
12.19
11.01
5.81
-0.57
-4.69
-4.54
-0.67
4.18
6.62
4.57
-1.40
-8.43
-12.72
-11.72
-5.50
3.12
10.05
12.16
9.01
3.09
-1.75
-2.47
1.28
6.96
10.78
9.86
4.11
-3.70
-9.47
-10.15
-5.52
1.62
7.04
7.46
2.33
-5.85
-12.95
-15.56
-12.78
-6.59
-0.51
2.33
1.02
-2.95
-6.73
-8.04
-6.35
-3.18
-1.04
-1.71
-5.14
-9.24
-11.06
-8.45
-1.51
7.24
14.01
15.67
11.61
4.14
-2.74
-5.57
-3.28
2.33
7.69
9.72
7.45
2.55
-1.88
-3.35
-1.34
2.37
4.94
4.16
-0.18
-6.07
-10.36
-10.59
-6.24
0.79
7.18
10.09
8.54
4.11
0.16
-0.24
3.89
10.70
16.41
17.38
12.32
3.29
-5.40
-9.54
-7.52
-1.24
5.04
7.12
3.22
-4.86
-12.99
-17.27
-16.05
-10.89
-5.30
-2.65
-4.16
-8.41
-12.25
-12.82
-9.11
-2.54
3.78
6.87
5.42
0.76
-4.04
-5.77
-2.93
3.20
9.39
12.23
10.15
4.43
-1.49
-3.89
-1.12
5.50
12.36
15.74
13.91
8.08
1.60
-2.19
-1.75
1.73
5.31
6.07
3.00
-2.33
-6.63
-6.90
-2.35
4.99
11.10
12.24
7.03
-2.48
-12.01
-17.28
-16.23
-10.16
-2.66
2.45
3.27
0.52
-3.21
-5.40
-4.94
-2.68
-0.60
-0.49
-2.70
-6.03
-8.49
-8.44
-5.69
-1.65
1.35
1.32
-2.21
-7.60
-11.95
-12.38
-7.75
0.66
9.66
15.77
16.92
13.57
8.41
4.75
4.61
7.59
11.04
11.83
8.20
1.15
-6.09
-9.90
-8.35
-2.52
4.06
7.39
5.39
-0.79
-7.45
-10.58
-8.15
-1.42
6.00
10.18
9.12
3.82
-2.55
-6.37
-5.74
-1.37
3.95
7.07
6.28
2.24
-2.40
-4.72
-3.14
1.47
6.33
8.26
5.51
-1.19
-8.82
-13.65
-13.35
-8.24
-1.18
4.13
5.14
1.93
-2.98
-6.22
-5.55
-1.28
4.07
7.26
6.29
1.67
-3.81
-6.70
-5.06
0.38
6.44
9.33
6.96
0.23
-7.51
-12.38
-12.17
-7.57
-1.72
1.79
1.16
-2.72
-6.74
-7.67
-4.13
2.57
9.08
12.00
9.89
3.96
-2.76
-7.06
-7.33
-4.24
-0.10
2.58
2.52
0.38
-1.81
-2.00
0.73
5.42
9.84
11.69
9.77
4.80
-1.07
-5.23
-6.13
-3.94
-0.42
1.98
1.62
-1.55
-5.91
-9.18
-9.65
-7.24
-3.44
-0.49
-0.16
-2.44
-5.52
-6.72
-4.15
1.99
9.15
13.64
12.75
6.65
-1.55
-7.43
-7.67
-2.25
5.70
11.72
12.60
8.39
2.21
-1.69
-0.57
5.09
11.73
14.82
11.70
3.13
-6.93
-13.47
-13.30
-6.89
1.91
8.03
8.00
1.94
-6.66
-12.93
-13.45
-7.94
0.57
7.78
10.52
8.42
3.89
0.49
0.73
4.62
9.73
12.68
11.19
5.44
-2.03
-7.79
-9.35
-6.52
-1.49
2.43
2.80
-0.76
-6.32
-10.74
-11.51
-8.07
-2.28
2.56
3.59
0.03
-6.32
-12.02
-13.92
-10.89
-4.47
2.17
6.00
5.77
2.47
-1.43
-3.56
-2.95
-0.48
1.85
2.25
0.29
-2.89
-5.31
-5.24
-2.56
1.26
3.55
2.26
-2.83
-9.57
-14.42
-14.26
-8.32
1.09
9.76
13.75
11.72
5.58
-0.55
-2.79
0.17
6.40
11.89
13.13
9.18
2.39
-3.17
-4.05
0.47
7.99
14.53
16.73
13.83
7.69
1.64
-1.43
-0.86
1.83
3.60
2.18
-2.85
-9.43
-14.33
-14.78
-10.26
-2.83
3.84
6.45
3.87
-2.30
-8.40
-10.87
-8.37
-2.40
3.24
5.02
1.50
-5.34
-11.41
-12.67
-7.60
1.84
11.30
16.46
15.40
9.58
2.85
-0.96
-0.30
3.42
6.71
6.49
1.99
-4.54
-9.28
-9.02
-3.25
5.48
12.81
15.06
11.18
3.29
-4.50
-8.51
-7.44
-2.84
1.96
4.08
2.56
-0.95
-3.62
-3.10
0.81
6.09
9.59
8.90
3.72
-3.87
-10.47
-13.31
-11.55
-6.70
-1.58
1.22
0.72
-1.97
-4.53
-4.94
-2.63
1.08
3.86
3.82
0.63
-4.08
-7.60
-7.85
-4.42
0.94
5.42
6.62
3.94
-1.04
-5.53
-7.03
-4.81
-0.15
4.46
6.80
6.05
3.20
0.37
-0.67
0.60
3.01
4.52
3.40
-0.66
-6.31
-11.16
-13.20
-11.80
-8.11
-4.34
-2.50
-3.34
-5.93
-8.26
-8.50
-5.96
-1.71
2.25
3.86
2.27
-1.68
-5.85
-8.02
-6.94
-3.05
1.72
5.14
5.76
3.71
0.62
-1.42
-0.98
1.84
5.59
8.25
8.42
6.08
2.49
-0.48
-1.47
-0.29
2.08
4.15
4.75
3.80
2.16
1.09
1.44
3.06
4.89
5.62
4.47
1.77
-1.16
-2.78
-2.28
-0.10
2.32
3.36
2.25
-0.49
-3.31
-4.69
-3.93
-1.64
0.60
1.28
-0.20
-3.05
-5.58
-6.15
-4.16
-0.43
3.22
4.96
3.93
0.74
-2.86
-4.94
-4.49
-1.82
1.56
3.86
3.92
1.78
-1.42
-4.10
-5.11
-4.22
-2.15
-0.09
0.93
0.57
-0.73
-2.12
-2.84
-2.65
-1.90
-1.25
-1.26
-1.90
-2.48
-2.15
-0.24
3.10
6.88
9.75
10.68
9.64
7.70
6.49
7.28
10.13
13.86
16.59
16.73
13.92
9.24
4.60
1.83
1.55
2.94
4.21
3.61
0.52
-4.21
-8.70
-11.12
-10.66
-7.96
-4.73
-2.85
-3.28
-5.51
-8.09
-9.28
-8.37
-5.89
-3.33
-2.26
-3.16
-5.22
-6.64
-5.81
-2.40
2.26
5.93
6.62
3.91
-0.75
-4.88
-6.40
-4.91
-1.82
0.47
0.08
-3.06
-7.15
-9.44
-7.93
-2.59
4.44
9.97
11.48
8.67
3.63
-0.50
-1.15
1.89
6.54
9.73
9.24
5.13
-0.20
-3.42
-2.44
2.43
8.50
12.16
10.89
4.61
-4.18
-11.71
-14.84
-12.74
-7.09
-1.13
2.10
1.47
-1.77
-4.78
-5.01
-1.73
3.40
7.43
7.76
3.76
-2.59
-7.94
-9.26
-5.74
0.76
6.69
8.86
6.21
0.53
-4.46
-5.50
-1.62
5.13
10.74
11.62
6.66
-1.91
-9.88
-13.24
-10.60
-3.82
3.17
6.72
5.38
0.70
-3.81
-4.96
-1.66
4.20
8.94
9.24
4.17
-4.05
-11.24
-13.64
-10.03
-2.50
4.71
7.79
5.37
-0.56
-6.06
-7.62
-4.24
1.93
6.98
7.69
3.43
-3.40
-8.80
-9.55
-5.00
2.43
8.60
10.10
6.09
-1.18
-7.81
-10.33
-7.60
-1.40
4.79
7.69
6.17
1.67
-2.52
-3.32
0.45
7.18
13.28
15.16
11.28
3.19
-5.31
-10.25
-9.69
-4.90
0.48
2.71
0.23
-5.39
-10.52
-11.73
-7.86
-0.66
6.30
9.69
8.47
4.39
0.85
0.79
4.81
10.71
14.75
13.69
7.06
-2.53
-10.66
-13.59
-10.32
-3.04
4.12
7.54
6.03
1.43
-2.68
-3.35
0.06
5.37
8.95
7.89
1.75
-6.91
-13.90
-15.57
-11.04
-2.66
5.12
8.17
4.99
-2.60
-10.48
-14.70
-13.74
-9.00
-3.79
-1.06
-1.77
-4.23
-5.53
-3.41
2.06
8.45
12.31
11.24
5.43
-2.52
-8.88
-10.79
-7.74
-1.72
3.80
5.91
3.71
-1.23
-5.75
-6.93
-3.75
2.15
7.28
8.23
3.68
-4.75
-13.18
-17.47
-15.64
-8.78
-0.63
4.81
5.37
2.02
-2.17
-3.82
-1.35
4.25
10.15
13.38
12.66
9.01
5.10
3.66
5.65
9.83
13.26
13.14
8.54
1.12
-5.75
-8.84
-6.85
-1.24
4.64
7.42
5.58
0.40
-4.82
-6.78
-3.99
2.26
8.54
11.25
8.59
1.88
-5.37
-9.30
-8.04
-2.78
2.86
5.22
2.60
-3.67
-10.01
-12.87
-10.88
-5.42
0.18
2.81
1.33
-2.83
-6.64
-7.28
-3.79
2.51
8.75
12.07
11.07
6.48
0.70
-3.63
-5.01
-3.79
-1.82
-1.21
-2.93
-6.13
-8.83
-8.97
-5.94
-0.90
3.68
5.36
3.19
-1.72
-6.60
-8.52
-5.97
0.22
7.12
11.28
10.51
5.32
-1.32
-5.60
-5.04
-0.04
6.38
10.38
9.65
4.84
-0.89
-3.81
-2.02
3.38
8.98
10.99
7.53
-0.09
-8.13
-12.36
-10.40
-3.14
5.83
12.09
12.82
8.26
1.51
-3.51
-4.24
-1.05
3.20
5.00
2.29
-4.15
-11.21
-15.29
-14.20
-8.42
-0.79
5.16
6.95
4.43
-0.29
-4.20
-5.07
-2.87
0.36
1.74
-0.47
-5.75
-11.34
-13.81
-11.15
-4.04
4.34
10.16
11.01
7.27
1.67
-2.45
-3.09
-0.69
2.49
3.88
2.05
-2.36
-7.03
-9.50
-8.35
-3.95
1.66
6.12
7.78
6.58
3.96
1.85
1.69
3.48
5.79
6.42
4.04
-1.04
-6.66
-9.77
-8.36
-2.47
5.38
11.54
13.13
9.67
3.31
-2.33
-4.24
-1.76
3.15
7.09
7.43
3.68
-1.94
-6.16
-6.55
-2.96
2.27
5.85
5.35
0.83
-5.28
-9.45
-9.04
-3.79
4.02
10.64
12.97
10.11
3.74
-2.85
-6.64
-6.52
-3.81
-1.36
-1.71
-5.43
-10.65
-14.10
-13.11
-7.36
0.72
7.11
8.61
4.49
-2.81
-9.04
-10.65
-6.77
0.25
6.37
8.01
4.38
-2.33
-8.12
-9.60
-5.87
0.99
7.35
9.97
7.96
3.09
-1.45
-2.83
-0.33
4.47
8.60
9.59
6.92
2.47
-0.56
0.41
5.61
12.72
17.98
18.44
13.43
4.96
-3.52
-8.99
-10.39
-8.87
-6.75
-6.07
-7.31
-9.19
-9.59
-6.88
-1.11
5.66
10.34
10.32
4.96
-3.88
-12.46
-17.01
-15.71
-9.67
-2.45
1.93
1.23
-3.68
-9.40
-11.97
-9.24
-1.98
6.48
12.32
13.14
9.34
3.46
-1.23
-2.67
-0.97
1.96
3.83
3.39
1.28
-0.52
0.10
3.92
9.50
13.78
13.65
7.98
-1.39
-10.25
-14.16
-10.96
-2.29
7.24
12.60
11.18
4.38
-3.25
-6.86
-4.12
3.38
11.10
14.46
11.32
3.38
-5.25
-10.26
-9.70
-4.69
1.34
4.92
4.27
0.18
-4.82
-7.98
-7.87
-5.20
-2.28
-1.63
-4.29
-9.06
-12.95
-12.97
-7.71
1.19
9.77
13.84
11.16
2.98
-6.58
-12.96
-13.46
-8.74
-2.25
2.10
2.23
-0.89
-4.29
-4.81
-1.27
4.94
10.59
12.85
10.58
5.17
-0.54
-3.87
-3.82
-1.43
0.93
1.06
-1.60
-5.62
-8.34
-7.56
-2.72
4.37
10.53
12.80
9.98
3.43
-3.56
-7.50
-6.50
-1.34
4.91
8.59
7.43
1.93
-5.05
-9.78
-9.84
-5.17
1.68
7.31
9.08
6.65
1.95
-2.16
-3.57
-2.10
0.52
1.78
0.18
-3.87
-8.17
-9.89
-7.28
-0.81
6.79
11.81
11.65
6.27
-1.63
-8.01
-9.75
-6.48
-0.76
3.45
3.34
-0.90
-6.13
-8.24
-4.92
2.92
11.39
16.08
14.56
7.96
0.25
-4.28
-3.29
2.12
8.35
11.37
9.00
2.04
-6.25
-11.94
-12.65
-8.48
-2.08
2.91
3.97
0.88
-4.03
-7.32
-6.52
-1.69
4.68
8.80
8.05
2.49
-5.05
-10.49
-10.94
-6.32
0.55
5.81
6.50
2.42
-3.94
-9.18
-10.67
-8.19
-3.76
-0.33
0.04
-2.74
-6.66
-8.78
-7.11
-1.63
5.32
10.30
10.76
6.58
0.20
-4.58
-4.83
-0.49
5.81
9.95
8.89
2.63
-5.65
-11.54
-11.91
-6.82
0.52
5.95
6.68
2.98
-2.11
-4.86
-3.10
2.60
9.14
12.89
11.84
6.72
0.63
-2.87
-1.83
3.00
8.61
11.48
9.54
3.59
-3.28
-7.29
-6.30
-1.03
5.39
9.19
8.16
2.73
-4.18
-8.99
-9.40
-5.52
0.24
4.66
5.38
2.21
-3.06
-7.56
-9.05
-6.92
-2.49
1.79
3.68
2.23
-1.48
-5.25
-6.84
-5.39
-1.87
1.56
2.83
1.35
-1.52
-3.09
-1.13
4.71
12.10
17.23
16.88
10.42
0.41
-8.40
-11.84
-8.55
-0.91
6.32
8.61
4.38
-4.30
-12.80
-16.74
-14.37
-7.41
0.23
4.81
4.75
1.45
-2.08
-3.04
-0.68
3.36
6.01
4.97
0.09
-6.21
-10.25
-9.38
-3.64
4.04
9.34
9.07
3.16
-5.31
-11.61
-12.13
-6.43
2.47
9.91
12.03
8.08
0.51
-6.45
-9.17
-6.63
-0.69
5.05
7.37
5.11
-0.11
-5.19
-7.14
-4.91
0.18
5.21
7.54
6.23
2.64
-0.37
-0.17
3.88
9.94
14.47
14.20
8.23
-1.27
-10.02
-13.84
-10.93
-2.85
6.27
12.04
12.14
7.61
1.96
-1.03
0.37
4.82
8.80
8.90
4.04
-3.68
-10.24
-12.05
-8.18
-1.05
4.83
5.50
-0.14
-9.51
-17.91
-21.01
-17.18
-8.38
1.16
7.23
7.77
3.84
-1.38
-4.45
-3.70
0.11
4.24
5.93
3.99
-0.46
-4.82
-6.59
-4.96
-1.14
2.30
2.99
0.30
-4.32
-8.09
-8.50
-4.71
1.61
7.30
9.25
6.27
-0.17
-6.69
-9.87
-8.04
-2.24
4.28
8.21
7.88
4.26
0.04
-1.98
-0.68
2.84
6.13
6.88
4.30
-0.39
-4.72
-6.25
-3.91
1.29
6.74
9.52
7.85
2.24
-4.74
-9.63
-9.85
-5.06
2.63
9.77
13.43
12.77
9.40
6.30
5.90
8.46
11.82
12.63
8.61
0.27
-9.15
-15.26
-15.02
-8.55
0.76
8.25
10.44
7.09
1.09
-3.50
-3.96
-0.62
3.40
4.25
-0.06
-8.26
-16.30
-19.70
-16.31
-7.70
1.53
6.40
4.42
-2.95
-11.18
-15.46
-13.35
-6.25
1.80
6.59
6.16
1.66
-3.50
-5.90
-4.00
1.04
6.11
8.00
5.16
-1.38
-8.59
-13.06
-12.74
-8.08
-1.64
3.33
4.78
2.82
-0.39
-2.12
-0.65
3.70
8.76
11.83
11.26
7.45
2.68
-0.14
0.82
5.15
10.30
12.80
10.39
3.47
-4.78
-10.23
-10.02
-4.41
3.33
8.92
9.50
5.28
-0.77
-4.92
-5.05
-1.71
2.29
3.78
1.27
-4.08
-9.25
-11.23
-8.78
-3.18
2.46
5.07
3.33
-1.46
-6.04
-7.03
-2.94
4.83
12.57
16.22
13.66
5.80
-3.69
-10.40
-11.45
-6.90
0.41
6.55
8.61
6.20
1.47
-2.31
-2.68
0.65
5.72
9.56
9.76
5.98
0.10
-4.98
-6.80
-4.81
-0.63
2.98
3.73
1.05
-3.55
-7.52
-8.69
-6.61
-2.75
0.38
0.87
-1.57
-5.33
-7.85
-7.23
-3.40
1.62
4.87
4.11
-0.78
-7.52
-12.79
-13.88
-10.45
-4.60
0.40
1.93
-0.42
-4.71
-7.83
-7.52
-3.45
2.40
7.13
8.53
6.43
2.71
0.09
0.60
4.20
8.88
11.68
10.49
5.37
-1.26
-5.94
-5.94
-0.97
6.44
12.41
13.53
8.91
0.58
-7.69
-12.31
-11.82
-7.42
-2.17
1.03
0.94
-1.29
-3.19
-2.64
0.67
5.06
7.88
7.20
2.97
-2.62
-6.38
-5.97
-1.09
6.01
11.88
13.60
10.50
4.47
-1.27
-3.90
-2.57
1.15
4.42
4.69
1.34
-4.09
-8.84
-10.50
-8.44
-4.12
-0.06
1.59
0.23
-2.85
-5.36
-5.30
-2.29
2.32
5.92
6.35
3.03
-2.27
-6.44
-6.74
-2.34
4.83
11.31
13.77
11.09
4.90
-1.24
-3.86
-1.68
3.77
8.82
9.93
5.88
-1.41
-8.07
-10.49
-7.55
-1.27
4.43
6.07
2.77
-3.43
-8.63
-9.58
-5.67
0.68
5.38
5.21
-0.28
-8.44
-15.12
-17.00
-13.28
-6.10
0.85
4.38
3.40
-0.64
-4.81
-6.37
-4.41
-0.13
3.96
5.61
4.02
0.38
-2.83
-3.18
0.39
6.61
12.51
14.68
11.49
3.93
-4.58
-10.08
-10.08
-4.95
2.35
7.90
9.07
5.93
0.95
-2.39
-2.03
1.58
5.80
7.63
5.56
0.68
-4.12
-5.88
-3.42
1.78
6.39
7.27
3.31
-3.74
-10.25
-12.89
-10.57
-5.05
0.19
1.93
-0.82
-6.31
-11.10
-11.99
-7.98
-0.73
6.24
9.38
7.23
1.15
-5.52
-9.12
-7.65
-1.88
5.15
9.78
9.66
5.17
-0.95
-5.11
-4.97
-0.82
4.61
8.00
7.24
2.83
-2.57
-5.73
-4.93
-0.88
3.67
5.58
3.28
-2.10
-7.40
-9.10
-5.47
2.42
11.20
16.84
16.92
11.94
4.95
-0.12
-0.72
2.85
7.65
9.93
7.42
0.91
-6.26
-10.09
-8.42
-2.34
4.33
7.30
4.40
-2.98
-10.72
-14.34
-11.74
-4.35
3.82
8.58
7.99
3.26
-2.33
-5.43
-4.60
-0.97
2.69
3.72
1.01
-4.13
-8.78
-9.99
-6.26
1.41
9.87
15.23
14.87
8.77
-0.19
-7.73
-10.32
-7.09
-0.25
6.27
9.10
7.18
2.08
-2.94
-5.19
-3.96
-0.74
1.60
0.94
-2.75
-7.40
-10.08
-8.60
-3.25
3.41
7.88
7.60
2.70
-3.97
-8.56
-8.30
-3.35
3.20
7.32
6.48
1.22
-5.26
-9.16
-8.33
-3.66
1.51
3.43
0.24
-6.77
-13.93
-17.15
-14.40
-6.85
1.84
7.35
7.24
2.13
-4.59
-8.76
-7.67
-1.61
6.30
12.02
12.77
8.65
2.32
-2.71
-4.11
-1.85
2.00
4.69
4.44
1.37
-2.73
-5.44
-5.09
-1.68
3.05
6.53
6.75
3.47
-1.50
-5.20
-5.04
-0.51
6.35
11.92
13.00
8.79
1.30
-5.51
-8.29
-5.96
-0.40
4.96
7.07
5.05
0.45
-3.89
-5.54
-3.94
-0.48
2.35
2.55
-0.02
-3.54
-5.17
-2.99
3.01
10.50
16.10
17.34
13.98
8.14
2.94
0.76
1.76
4.10
5.19
3.35
-0.93
-5.32
-7.14
-5.00
0.27
5.77
8.33
6.05
-0.43
-8.21
-13.64
-14.34
-10.46
-4.64
-0.49
-0.73
-5.45
-12.03
-16.60
-16.35
-10.92
-2.91
3.70
5.73
2.58
-3.57
-9.04
-10.82
-8.29
-3.39
0.62
1.13
-2.06
-6.49
-8.73
-6.33
0.55
9.10
15.43
16.64
12.50
5.63
-0.01
-1.32
2.12
7.84
12.02
11.63
6.33
-1.31
-7.37
-8.80
-5.11
1.26
6.40
7.18
3.10
-3.42
-8.37
-8.59
-3.68
3.62
9.07
9.31
3.84
-4.39
-10.95
-12.27
-7.75
0.04
6.91
9.44
6.88
1.46
-3.14
-3.82
0.19
6.85
12.68
14.50
11.25
4.49
-2.62
-6.88
-6.92
-3.74
-0.19
0.83
-1.87
-7.01
-11.53
-12.44
-8.74
-2.22
3.60
5.42
2.20
-4.03
-9.37
-10.20
-5.27
3.63
12.47
17.17
15.82
9.80
2.84
-1.03
0.18
5.19
10.50
12.31
8.96
1.81
-5.54
-9.32
-7.96
-2.90
2.14
3.57
0.12
-6.14
-11.17
-11.38
-5.91
2.55
9.37
10.49
4.95
-4.48
-12.67
-15.04
-10.26
-0.90
7.91
11.39
7.87
-0.34
-8.62
-12.50
-10.27
-3.76
2.96
6.00
3.76
-2.30
-8.59
-11.53
-9.45
-3.29
3.89
8.76
9.40
6.44
2.48
0.54
2.35
7.03
11.66
12.93
9.23
1.90
-5.28
-8.37
-5.66
1.10
7.54
9.29
4.60
-4.48
-13.31
-17.29
-14.58
-6.99
1.24
5.93
5.44
1.34
-2.67
-3.15
1.08
8.22
14.49
16.30
12.21
3.99
-4.30
-8.49
-6.55
0.22
7.72
11.52
9.23
2.07
-5.81
-10.02
-8.26
-2.09
4.22
6.25
2.24
-5.92
-13.88
-17.35
-14.72
-7.71
-0.21
4.00
3.39
-0.63
-4.76
-5.93
-2.94
2.73
7.95
9.62
6.42
-0.30
-7.00
-9.94
-7.21
0.07
7.93
11.96
9.59
1.91
-6.84
-11.80
-10.23
-3.21
4.98
9.44
7.53
0.36
-8.14
-13.55
-13.54
-9.01
-3.29
0.04
-0.89
-5.16
-9.63
-10.93
-7.28
0.56
9.55
16.02
17.53
14.11
8.10
2.76
0.54
1.74
4.57
6.52
5.76
2.57
-0.98
-2.49
-0.53
4.18
9.11
11.33
9.10
3.00
-4.19
-8.92
-8.85
-4.18
2.17
6.31
5.40
-0.52
-8.38
-13.90
-13.96
-8.38
-0.15
6.37
7.87
4.02
-2.55
-7.90
-9.08
-5.84
-0.57
3.32
3.41
-0.16
-4.65
-6.76
-4.29
2.27
9.89
14.57
13.72
7.52
-0.81
-6.80
-7.17
-1.61
6.90
13.80
15.42
11.04
3.19
-4.04
-7.27
-5.70
-1.48
1.92
1.70
-2.43
-8.20
-12.21
-11.92
-7.32
-1.00
3.32
2.79
-2.70
-10.13
-15.21
-14.55
-7.81
2.07
10.35
13.20
9.68
2.16
-5.26
-9.05
-8.24
-4.60
-1.33
-0.99
-3.90
-8.01
-10.37
-8.81
-3.19
4.41
10.85
13.57
11.82
7.31
3.11
2.00
4.89
10.08
14.37
14.72
10.14
2.43
-4.97
-8.74
-7.63
-3.13
1.61
3.59
1.77
-2.32
-5.65
-5.57
-1.49
4.64
9.41
9.95
5.65
-1.27
-7.01
-8.22
-3.98
3.53
10.31
12.77
9.72
3.04
-3.52
-6.61
-5.01
-0.38
3.95
4.93
1.63
-4.26
-9.58
-11.43
-8.79
-3.09
2.73
5.83
5.01
1.12
-3.39
-6.09
-5.74
-2.95
0.21
1.62
0.21
-3.28
-6.95
-8.65
-7.17
-2.98
2.05
5.51
5.84
3.25
-0.20
-2.00
-0.48
3.93
8.97
11.77
10.70
6.35
1.21
-1.79
-1.00
2.73
6.61
7.41
3.63
-3.55
-10.61
-13.75
-11.06
-3.55
5.19
11.05
11.54
7.10
0.65
-4.22
-5.27
-2.94
0.23
1.26
-1.38
-6.73
-11.81
-13.46
-10.05
-2.64
5.51
10.49
9.99
4.50
-2.77
-7.83
-8.05
-3.71
2.13
5.54
4.19
-1.43
-8.15
-12.11
-11.08
-5.60
1.38
6.24
6.76
3.36
-1.29
-4.12
-3.24
0.83
5.55
7.85
6.07
0.88
-4.85
-7.74
-5.85
0.19
7.40
12.09
11.99
7.50
1.48
-2.56
-2.49
1.28
5.95
7.98
5.36
-1.17
-8.31
-11.91
-9.30
-1.14
8.89
15.78
15.85
8.96
-1.28
-9.60
-11.91
-7.75
-0.31
5.46
5.99
1.03
-6.48
-12.15
-13.02
-9.11
-3.30
0.46
-0.39
-5.55
-11.86
-15.38
-13.57
-6.76
1.93
8.37
9.69
5.83
-0.70
-6.17
-7.65
-4.76
0.46
4.81
5.83
3.21
-1.04
-3.96
-3.31
1.14
7.42
12.52
14.01
11.48
6.63
2.31
0.76
2.36
5.43
7.37
6.14
1.48
-4.84
-9.94
-11.21
-7.78
-1.03
5.90
9.72
8.78
4.05
-1.36
-3.89
-1.83
3.70
9.26
11.31
8.31
1.86
-4.49
-7.44
-6.08
-2.39
0.20
-0.96
-5.88
-11.95
-15.49
-14.05
-7.85
0.10
5.67
5.88
0.72
-6.68
-11.88
-11.45
-5.16
3.93
11.15
12.82
8.30
0.28
-6.95
-9.94
-7.87
-2.88
1.60
2.75
0.12
-4.22
-7.37
-7.06
-3.09
2.73
7.60
9.19
7.02
2.61
-1.23
-2.03
0.94
6.18
10.81
12.05
8.83
2.54
-3.91
-7.46
-6.69
-2.48
2.61
5.72
5.43
2.45
-0.89
-2.18
-0.34
3.48
6.79
7.12
3.72
-1.76
-6.27
-6.87
-2.85
3.86
9.53
10.81
6.72
-0.73
-7.53
-10.05
-7.07
-0.62
5.15
6.44
2.02
-5.92
-13.10
-15.49
-11.70
-3.70
4.30
8.38
6.98
1.78
-3.48
-5.27
-2.27
3.74
9.12
10.44
6.80
0.20
-5.60
-7.17
-3.40
3.81
10.52
13.03
9.80
2.40
-5.36
-9.67
-8.69
-3.50
2.73
6.60
6.43
3.00
-1.06
-3.04
-1.69
2.02
5.40
5.83
2.28
-3.79
-9.29
-11.13
-8.17
-2.01
3.74
5.30
1.18
-7.02
-15.20
-19.02
-16.23
-8.00
1.91
9.31
11.70
9.47
5.16
1.81
1.09
2.48
3.86
2.87
-1.45
-7.92
-13.73
-15.93
-13.13
-6.22
1.88
7.73
9.08
6.15
1.23
-2.46
-2.69
0.47
4.78
7.23
5.81
0.84
-5.27
-9.21
-8.70
-3.66
3.63
9.86
12.49
11.12
7.44
4.22
3.43
5.11
7.42
7.84
4.87
-0.90
-7.06
-10.48
-9.37
-4.18
2.50
7.32
7.91
4.37
-1.04
-5.05
-5.27
-1.57
3.95
8.16
8.77
5.51
0.24
-4.14
-5.57
-3.73
-0.28
2.25
2.05
-0.85
-4.64
-6.66
-5.12
-0.32
5.44
8.97
8.08
2.94
-3.94
-9.09
-10.29
-7.71
-3.83
-1.75
-3.34
-7.85
-12.57
-14.41
-11.81
-5.73
1.06
5.37
5.61
2.46
-1.53
-3.44
-1.76
2.92
8.19
11.21
10.32
6.01
0.48
-3.49
-4.18
-1.89
1.47
3.33
2.18
-1.74
-6.36
-8.88
-7.50
-2.29
4.65
10.31
12.29
10.27
6.02
2.42
1.74
4.15
7.81
9.77
7.96
2.35
-4.76
-9.84
-10.41
-6.08
0.86
6.84
8.75
5.89
0.19
-4.89
-6.41
-3.69
1.45
5.55
5.92
1.92
-4.45
-9.62
-10.71
-6.95
-0.29
5.90
8.61
7.00
2.76
-0.98
-1.53
1.63
6.63
10.16
9.69
4.73
-2.57
-8.50
-10.06
-6.50
0.24
6.66
9.45
7.44
2.12
-3.45
-6.25
-5.09
-1.20
2.58
3.61
0.93
-3.94
-7.89
-8.10
-3.83
2.93
8.42
9.36
4.82
-3.02
-10.03
-12.40
-8.89
-1.53
5.43
8.13
5.18
-1.46
-7.81
-10.29
-7.79
-2.27
2.74
4.36
1.91
-2.63
-6.01
-5.74
-1.44
4.76
9.40
9.63
4.90
-2.70
-9.35
-11.51
-7.98
-0.64
6.45
9.38
6.52
-0.44
-7.43
-10.34
-7.40
-0.24
7.10
10.49
7.93
0.77
-7.27
-12.09
-11.46
-6.24
0.15
3.94
3.02
-1.62
-6.61
-8.34
-5.12
1.48
7.63
9.56
6.05
-0.79
-6.73
-7.92
-3.33
4.58
11.36
13.30
9.46
2.19
-4.36
-6.72
-3.96
1.77
6.62
7.41
3.50
-2.81
-7.66
-7.86
-2.82
5.13
11.91
14.18
10.89
3.99
-2.81
-6.16
-4.65
0.33
5.67
8.23
6.53
1.42
-4.48
-8.34
-8.60
-5.80
-2.39
-1.27
-4.01
-9.72
-15.42
-17.45
-13.78
-5.26
4.72
11.85
13.33
9.35
2.84
-2.32
-3.48
-0.73
3.18
4.87
2.27
-3.77
-10.08
-12.87
-10.12
-2.72
5.75
10.99
10.48
4.73
-2.81
-7.81
-7.56
-2.36
4.73
9.87
10.73
7.80
3.81
2.07
4.01
8.45
12.31
12.53
8.01
0.41
-6.65
-9.80
-7.87
-2.50
2.70
4.32
1.13
-5.12
-11.02
-13.21
-10.57
-4.59
1.45
4.35
2.89
-1.67
-6.34
-8.05
-5.27
1.10
8.36
13.48
14.55
11.75
7.11
3.27
1.99
3.30
5.38
5.91
3.53
-1.13
-5.63
-7.09
-3.89
2.98
10.40
14.54
13.02
6.41
-2.13
-8.52
-10.00
-6.68
-1.35
2.36
2.15
-1.60
-6.25
-8.67
-7.12
-2.48
2.42
4.42
2.06
-3.63
-9.46
-12.00
-9.33
-2.37
5.54
10.35
9.53
3.63
-4.10
-9.59
-10.16
-6.34
-1.31
1.02
-1.58
-8.16
-15.06
-18.23
-15.43
-7.83
0.72
5.72
4.64
-1.81
-10.11
-15.86
-16.09
-10.88
-3.04
3.37
5.45
2.96
-1.51
-4.23
-2.65
3.04
9.88
13.96
12.68
6.40
-1.72
-7.42
-7.62
-2.14
6.30
13.52
16.20
13.64
7.99
2.97
1.74
5.02
10.78
15.38
15.82
11.50
4.59
-1.25
-3.22
-1.01
3.04
5.47
4.05
-0.90
-6.58
-9.51
-7.76
-2.10
4.44
8.14
6.87
1.14
-6.09
-11.24
-12.00
-8.62
-3.62
-0.31
-0.73
-4.56
-9.29
-11.65
-9.54
-3.38
4.14
9.40
9.84
5.31
-1.65
-7.29
-8.71
-5.33
0.83
6.30
8.22
5.94
1.35
-2.35
-2.62
0.80
5.87
9.34
8.81
4.06
-2.50
-7.32
-7.69
-3.10
4.19
10.46
12.51
9.42
3.14
-2.77
-5.12
-3.11
1.30
4.53
3.82
-0.95
-7.10
-10.78
-9.46
-3.52
3.75
8.41
7.89
2.66
-4.34
-9.40
-10.13
-6.70
-1.42
2.50
2.84
-0.72
-6.29
-10.80
-11.69
-8.07
-1.38
5.43
9.28
8.72
4.67
-0.24
-3.22
-3.07
-0.76
1.31
0.88
-2.55
-7.28
-10.65
-10.48
-6.37
-0.20
5.30
7.65
6.28
2.52
-1.05
-2.17
-0.06
4.18
8.21
9.80
8.01
3.84
-0.24
-1.74
0.42
5.17
9.80
11.34
8.53
2.52
-3.69
-6.90
-5.66
-1.19
3.44
5.16
2.76
-2.13
-6.34
-7.05
-3.48
2.45
7.68
9.56
7.49
3.03
-1.03
-2.33
-0.27
3.80
7.27
7.78
4.42
-1.71
-7.94
-11.57
-11.32
-7.96
-3.92
-1.97
-3.33
-6.78
-9.50
-8.65
-3.53
3.82
9.69
10.96
6.73
-0.82
-7.99
-11.48
-10.18
-5.63
-0.72
1.83
1.18
-1.62
-4.17
-4.27
-1.22
3.98
8.92
11.22
9.65
4.99
-0.34
-3.46
-2.90
0.78
5.05
6.85
4.59
-0.71
-6.00
-7.72
-4.12
3.54
11.56
15.93
14.34
7.70
-0.51
-6.22
-7.02
-3.39
1.64
4.47
3.15
-1.39
-5.97
-7.12
-3.48
3.20
9.00
10.10
5.18
-3.52
-11.40
-13.93
-9.62
-0.89
7.18
9.66
4.74
-5.08
-14.44
-18.04
-13.69
-3.56
7.10
12.91
11.24
3.46
-5.95
-12.10
-12.29
-7.15
-0.02
5.15
6.05
3.09
-1.20
-3.68
-2.62
1.33
5.64
7.30
4.66
-1.36
-7.81
-11.20
-9.62
-3.93
2.55
5.88
3.87
-2.47
-9.46
-12.73
-9.99
-2.38
6.03
10.74
9.32
2.97
-4.27
-8.01
-6.07
0.27
7.18
10.54
8.46
2.28
-4.32
-7.39
-5.14
1.28
8.44
12.66
12.04
7.42
1.75
-1.58
-0.76
3.61
8.90
11.97
11.00
6.53
1.11
-2.19
-1.49
2.69
7.82
10.85
9.77
4.84
-1.60
-6.56
-8.05
-6.27
-3.54
-2.82
-5.86
-11.88
-17.86
-20.09
-16.46
-7.85
2.07
8.62
8.76
2.76
-5.98
-12.66
-13.79
-9.21
-1.90
3.85
4.96
1.38
-3.89
-6.86
-4.91
1.45
8.81
12.96
11.31
4.66
-3.21
-7.90
-6.85
-0.91
6.05
9.56
7.12
-0.17
-8.45
-13.32
-12.34
-6.45
0.73
5.05
4.30
-0.57
-6.08
-8.29
-5.04
2.80
11.85
18.13
19.15
15.15
8.71
3.12
0.52
1.02
2.83
3.60
1.94
-1.87
-5.95
-7.96
-6.41
-1.48
4.83
9.67
10.69
7.49
1.81
-3.12
-4.54
-1.62
3.90
8.71
9.91
6.81
1.39
-3.06
-4.08
-1.50
2.46
4.70
3.29
-1.29
-6.48
-9.06
-7.26
-1.72
4.63
8.16
6.49
-0.07
-8.58
-14.96
-16.09
-11.80
-4.78
0.81
1.75
-2.40
-9.01
-14.05
-14.49
-10.01
-3.14
2.56
4.39
2.26
-1.54
-3.99
-3.11
0.82
5.48
7.84
6.09
0.66
-6.08
-10.93
-11.61
-7.91
-1.70
4.14
7.25
7.03
4.68
2.65
3.18
6.88
12.42
17.11
18.39
15.33
9.48
3.86
1.37
2.89
6.64
9.32
7.95
2.14
-5.59
-11.35
-12.13
-7.65
-0.84
4.20
4.41
-0.32
-7.28
-12.60
-13.49
-9.74
-3.79
0.70
1.04
-3.07
-9.31
-13.94
-13.84
-8.31
0.38
8.11
11.03
7.78
0.41
-6.71
-9.22
-5.46
2.60
10.45
13.69
10.71
3.68
-2.98
-5.29
-2.01
4.59
10.40
12.07
8.92
3.33
-1.05
-1.55
1.90
6.76
9.61
8.10
2.49
-4.45
-9.07
-8.67
-3.12
4.88
11.27
12.56
7.80
-1.02
-9.96
-15.04
-14.46
-9.41
-3.51
-0.61
-2.66
-8.35
-13.97
-15.83
-12.37
-5.32
1.47
4.37
2.15
-3.33
-8.38
-9.77
-6.59
-0.77
4.30
5.71
2.78
-2.62
-7.32
-8.40
-4.83
2.02
9.02
12.82
11.75
6.83
1.36
-0.94
1.76
8.20
14.53
16.66
12.66
4.19
-4.54
-9.26
-8.05
-2.41
4.05
7.69
7.03
3.21
-0.92
-2.70
-1.14
2.75
6.75
8.81
8.07
5.44
2.88
2.39
4.64
8.49
11.24
10.19
4.24
-4.93
-13.36
-16.77
-13.10
-3.96
5.87
11.02
8.55
-0.31
-10.85
-17.62
-17.51
-11.39
-3.30
2.29
3.07
0.03
-3.44
-4.13
-0.94
4.36
8.54
8.97
5.21
-0.63
-5.33
-6.32
-3.14
2.30
6.84
7.89
4.72
-1.09
-6.49
-8.61
-6.34
-0.87
4.85
7.63
5.97
0.74
-5.11
-8.26
-6.95
-2.05
3.18
5.22
2.35
-4.11
-10.48
-12.99
-9.98
-3.15
3.52
6.11
3.07
-3.80
-10.60
-13.50
-10.97
-4.61
2.03
5.63
4.83
0.89
-3.10
-4.33
-1.67
3.63
8.60
10.28
7.39
1.11
-5.45
-9.05
-8.01
-3.17
2.44
5.39
3.86
-1.22
-6.64
-8.77
-5.49
2.13
10.48
15.39
14.34
8.06
0.00
-5.38
-5.25
0.09
7.44
12.58
12.64
7.71
0.83
-4.03
-4.24
-0.04
5.65
9.06
7.82
2.47
-4.04
-8.19
-8.05
-4.39
-0.31
0.65
-3.24
-10.69
-18.11
-21.60
-19.03
-11.32
-2.02
4.72
6.30
2.87
-2.85
-7.12
-7.35
-3.40
2.59
7.40
8.85
6.88
3.57
1.86
3.52
8.01
12.69
14.29
11.00
3.80
-3.86
-7.93
-6.23
0.36
8.28
13.28
12.85
7.60
0.78
-3.67
-3.53
0.57
5.60
7.99
5.93
0.34
-5.76
-9.14
-8.38
-4.54
-0.34
1.60
0.25
-3.26
-6.83
-8.63
-8.23
-6.50
-4.92
-4.45
-5.12
-6.21
-6.75
-5.92
-3.37
0.57
4.95
8.30
9.38
7.78
4.60
2.16
2.64
6.54
11.98
15.46
13.93
6.94
-2.71
-10.41
-12.39
-7.95
0.11
7.32
10.02
7.49
2.01
-2.84
-4.43
-2.44
1.04
3.19
2.10
-1.83
-6.28
-8.51
-6.78
-1.57
4.64
8.69
8.54
4.23
-2.07
-7.41
-9.53
-8.19
-4.98
-2.27
-1.80
-3.82
-6.99
-9.18
-8.67
-5.11
0.13
4.57
5.92
3.46
-1.23
-4.99
-4.93
-0.18
7.20
13.32
14.55
9.94
1.95
-5.20
-7.93
-5.45
-0.27
3.78
3.84
-0.25
-5.92
-9.93
-10.26
-7.30
-3.37
-1.20
-2.24
-5.76
-9.28
-10.10
-6.66
0.49
8.74
14.72
15.98
12.15
5.25
-1.23
-4.23
-2.68
1.99
6.58
7.98
4.90
-1.26
-7.24
-9.83
-7.78
-2.52
2.75
4.84
2.60
-2.25
-6.29
-6.40
-1.75
5.55
11.64
13.09
9.20
2.40
-3.11
-3.94
0.57
7.87
13.59
14.30
9.23
0.79
-7.08
-11.00
-10.06
-6.05
-2.20
-1.18
-3.68
-8.07
-11.51
-11.65
-7.94
-1.95
3.69
6.53
5.67
2.12
-1.72
-3.55
-2.23
1.55
5.63
7.67
6.47
2.73
-1.11
-2.34
0.32
5.79
10.84
11.90
7.30
-1.43
-10.24
-14.53
-12.06
-4.18
4.84
10.25
9.71
4.48
-1.56
-4.43
-2.33
3.23
8.76
10.94
8.65
3.45
-1.56
-3.75
-2.42
0.93
3.62
3.60
0.56
-3.89
-7.12
-7.12
-3.78
1.00
4.14
3.00
-2.85
-11.15
-17.98
-19.65
-14.94
-5.80
3.49
8.59
7.41
1.16
-6.37
-10.99
-10.43
-5.46
0.74
4.63
4.42
1.08
-2.39
-2.93
0.58
6.49
11.33
11.82
6.93
-1.34
-8.92
-11.97
-8.95
-1.45
6.74
11.80
11.80
7.57
2.02
-1.60
-1.40
2.09
6.41
8.71
7.29
2.72
-2.46
-5.12
-3.56
1.47
7.05
9.54
6.87
-0.22
-8.44
-13.70
-13.54
-8.40
-1.29
3.98
5.07
2.30
-1.68
-3.70
-1.98
2.73
7.57
9.48
6.97
1.24
-4.52
-7.03
-4.80
0.89
6.74
9.32
7.00
0.74
-6.43
-11.14
-11.38
-7.46
-1.66
3.18
5.15
4.20
1.78
-0.05
-0.01
1.57
2.98
2.13
-2.09
-8.89
-15.57
-18.89
-16.77
-9.60
-0.35
6.88
8.97
5.57
-0.70
-5.56
-5.78
-0.85
6.51
12.07
12.64
8.11
1.54
-2.81
-2.07
3.40
10.24
14.12
12.30
5.33
-3.30
-9.23
-9.69
-5.04
1.49
5.82
5.38
0.52
-5.81
-9.92
-9.59
-5.32
0.22
3.88
3.98
1.08
-2.61
-4.73
-4.23
-1.86
0.48
1.08
-0.69
-3.93
-6.80
-7.57
-5.44
-1.07
3.71
6.72
6.56
3.33
-1.28
-4.68
-4.81
-1.28
4.26
8.95
10.29
7.51
2.08
-2.99
-4.81
-2.29
3.11
8.16
9.61
6.28
-0.08
-5.70
-6.96
-2.81
4.44
10.29
10.70
4.77
-4.50
-12.05
-13.79
-9.14
-1.46
4.14
3.92
-2.18
-10.68
-16.78
-17.28
-12.21
-4.57
1.64
3.74
1.64
-2.41
-5.39
-5.03
-0.95
5.23
10.97
14.03
13.60
10.76
7.73
6.77
8.69
12.38
15.33
15.05
10.67
3.61
-2.96
-5.90
-4.02
1.14
6.03
7.17
3.24
-3.94
-10.35
-12.18
-8.12
-0.31
6.76
8.89
4.55
-4.05
-12.51
-16.80
-15.44
-10.30
-5.11
-3.23
-5.57
-10.37
-14.52
-15.55
-12.93
-8.24
-4.02
-2.20
-3.02
-4.98
-5.84
-3.81
1.28
7.79
13.11
14.79
12.01
6.05
-0.18
-3.81
-3.32
0.53
5.13
7.70
6.68
2.91
-0.98
-2.08
0.93
6.89
12.75
15.17
12.56
6.01
-1.17
-5.46
-4.96
-0.70
4.16
6.09
3.37
-2.70
-8.73
-10.94
-7.66
-0.40
7.04
10.63
8.52
2.01
-4.92
-8.22
-5.79
1.12
8.77
12.97
11.51
5.40
-1.93
-6.45
-5.97
-1.15
4.89
8.53
7.82
3.45
-1.51
-3.65
-1.24
4.60
10.44
12.34
8.35
-0.30
-9.74
-15.45
-14.89
-8.80
-0.88
4.44
4.60
0.23
-5.27
-7.94
-5.68
0.44
6.86
9.55
6.66
-0.45
-7.82
-11.26
-8.69
-1.42
6.48
10.71
9.02
2.55
-4.94
-9.19
-7.99
-2.39
4.01
6.95
4.38
-2.70
-10.49
-14.81
-13.36
-7.00
0.71
5.70
5.59
1.12
-4.66
-8.06
-7.09
-2.63
2.26
4.13
1.51
-4.31
-9.82
-11.52
-7.86
-0.25
7.46
11.28
9.10
2.20
-5.74
-10.41
-9.30
-3.11
4.72
9.91
9.81
4.73
-2.08
-6.49
-5.76
-0.18
7.08
11.80
11.16
5.49
-2.07
-7.37
-7.54
-2.75
4.13
9.22
9.89
6.35
1.36
-1.58
-0.45
3.97
8.53
9.64
5.38
-3.01
-11.94
-17.41
-17.13
-11.86
-4.85
0.14
0.92
-1.94
-5.64
-6.89
-4.01
1.99
7.93
10.15
6.69
-1.38
-10.39
-15.92
-15.15
-8.53
0.45
7.18
8.28
3.48
-4.32
-10.78
-12.45
-8.65
-1.71
4.64
7.43
6.12
2.78
0.58
1.80
6.28
11.55
14.32
12.41
6.18
-1.52
-6.86
-7.16
-2.08
5.98
13.46
17.23
16.33
12.14
7.37
4.56
4.69
6.75
8.52
7.86
4.06
-1.60
-6.70
-8.87
-7.25
-3.12
0.77
1.74
-1.10
-6.29
-10.70
-11.32
-7.09
0.41
7.62
11.05
9.21
3.66
-1.94
-3.90
-0.74
5.86
11.97
13.70
9.61
1.73
-5.56
-8.05
-4.23
3.65
10.85
12.86
8.13
-0.93
-9.47
-13.05
-10.23
-3.29
3.32
5.67
2.71
-3.31
-8.37
-9.22
-5.35
0.74
5.07
4.59
-0.85
-8.33
-13.48
-13.15
-7.41
0.49
5.68
4.82
-2.04
-11.36
-18.10
-18.67
-12.94
-4.19
2.93
5.09
2.16
-3.03
-6.59
-5.98
-1.42
4.53
8.69
9.09
6.01
1.60
-1.76
-2.67
-1.49
0.19
0.63
-0.82
-3.46
-5.63
-5.66
-2.96
1.57
5.93
7.89
6.21
1.44
-4.26
-8.15
-8.26
-4.64
0.63
4.55
4.83
1.26
-4.22
-8.62
-9.59
-6.61
-1.32
3.63
6.01
5.11
2.11
-0.76
-1.56
0.33
3.80
6.61
6.84
3.89
-0.98
-5.21
-6.24
-3.11
2.89
8.75
11.43
9.61
4.50
-0.75
-2.87
-0.33
5.66
11.97
15.06
13.08
6.82
-0.82
-6.28
-7.26
-3.94
1.17
4.67
4.29
0.07
-5.51
-9.08
-8.28
-3.28
3.15
7.35
6.92
2.20
-3.91
-7.64
-6.79
-2.05
3.34
5.82
3.67
-1.69
-6.59
-7.39
-2.76
5.22
12.31
14.39
10.06
1.44
-7.02
-10.97
-8.68
-1.87
5.31
8.62
6.25
-0.25
-6.77
-9.19
-5.71
2.05
9.83
13.21
9.99
1.55
-7.92
-13.79
-13.57
-8.23
-1.46
2.67
1.93
-2.73
-7.99
-10.43
-8.38
-3.06
2.35
4.57
2.19
-3.43
-9.00
-11.14
-8.41
-2.09
4.48
7.81
6.22
0.67
-5.63
-9.10
-7.76
-2.35
4.06
7.79
6.62
1.18
-5.47
-9.55
-8.62
-3.08
4.30
10.01
11.67
9.32
5.33
2.57
2.95
6.04
9.52
10.76
8.45
3.77
-0.48
-1.33
2.28
8.67
14.32
15.76
11.62
3.30
-5.57
-11.24
-11.76
-7.95
-2.69
0.71
0.31
-3.37
-7.93
-10.48
-9.28
-4.77
0.70
4.33
4.31
1.00
-3.28
-5.66
-4.41
-0.13
4.56
6.54
4.12
-1.86
-8.52
-12.45
-11.72
-6.90
-0.68
3.76
4.43
1.52
-2.80
-5.80
-5.87
-3.32
-0.14
1.39
0.12
-3.00
-5.53
-4.97
-0.46
6.47
12.53
14.49
10.94
3.23
-5.04
-10.01
-9.57
-4.52
1.94
6.01
5.40
0.55
-5.62
-9.38
-8.46
-3.35
3.09
7.19
6.72
2.14
-3.61
-6.93
-5.75
-0.76
5.03
8.22
6.89
2.02
-3.27
-5.46
-2.71
3.95
11.40
16.01
15.83
11.29
4.98
0.05
-1.56
-0.20
1.99
2.38
-0.46
-5.89
-11.47
-14.33
-12.86
-7.77
-1.70
2.09
1.67
-2.59
-8.07
-11.44
-10.53
-5.64
0.58
4.75
4.61
0.43
-5.17
-8.71
-7.66
-1.98
5.82
11.88
13.24
9.42
2.81
-2.58
-3.31
1.22
8.47
13.83
13.51
6.66
-3.71
-12.53
-15.40
-11.10
-2.44
5.51
8.39
5.15
-1.50
-6.99
-7.57
-2.61
5.12
11.19
12.12
7.36
-0.40
-6.96
-8.84
-5.19
1.72
8.00
10.10
6.93
0.16
-6.77
-10.45
-9.45
-4.85
0.37
3.11
1.86
-2.32
-6.57
-7.94
-5.08
0.63
6.08
8.05
5.34
-0.46
-5.86
-7.58
-4.53
1.39
6.48
7.54
3.84
-2.30
-7.03
-7.34
-2.86
3.77
8.69
8.86
4.07
-3.05
-8.63
-9.75
-5.98
0.39
5.81
7.65
5.43
1.13
-2.09
-1.79
2.30
8.07
12.21
12.03
7.18
-0.11
-6.12
-7.67
-3.92
3.14
9.66
12.23
9.77
4.15
-1.02
-2.61
-0.08
4.41
7.32
6.00
0.50
-6.52
-11.43
-11.83
-7.86
-2.07
2.17
2.74
-0.20
-4.46
-7.12
-6.33
-2.30
2.88
6.39
6.17
2.17
-3.56
-8.05
-8.95
-5.88
-0.62
3.72
4.70
1.81
-3.09
-6.80
-6.65
-2.20
4.45
9.71
10.43
5.83
-2.02
-9.32
-12.52
-10.35
-4.32
2.13
5.70
5.07
1.43
-2.31
-3.36
-0.62
4.68
9.76
11.84
9.71
4.43
-1.36
-4.82
-4.56
-1.32
2.28
3.44
0.77
-4.79
-10.42
-13.10
-11.50
-6.67
-1.45
1.27
0.49
-2.28
-4.00
-2.13
3.66
11.15
16.65
17.20
12.33
4.55
-2.03
-4.02
-0.48
6.36
12.38
13.85
9.38
0.79
-7.93
-12.80
-12.16
-7.32
-1.87
0.45
-2.07
-8.23
-14.84
-18.33
-17.10
-12.20
-6.52
-3.31
-4.02
-7.77
-11.68
-12.81
-9.60
-2.90
4.54
9.62
10.36
7.28
2.99
0.80
2.86
8.69
15.41
19.34
17.93
11.34
2.37
-5.08
-8.06
-6.22
-1.65
2.34
3.46
1.71
-0.81
-1.34
1.75
7.62
13.47
15.87
12.92
5.29
-3.93
-10.72
-12.40
-8.99
-3.35
0.62
0.12
-4.90
-11.74
-16.57
-16.54
-11.50
-4.00
2.16
4.15
1.88
-2.16
-4.45
-2.49
3.50
10.84
15.77
15.88
11.30
4.73
-0.33
-1.26
2.08
7.31
10.98
10.60
6.08
-0.41
-5.51
-6.88
-4.30
-0.03
2.62
1.09
-4.87
-12.87
-19.15
-20.58
-16.34
-8.49
-0.85
3.04
2.11
-1.80
-5.07
-4.41
1.02
9.04
15.59
17.20
13.09
5.84
-0.26
-1.56
2.60
9.45
14.43
13.90
7.49
-1.77
-9.06
-10.69
-6.16
1.47
7.45
7.98
2.48
-6.20
-13.60
-16.09
-12.84
-6.16
0.17
3.02
1.76
-1.63
-4.03
-3.07
1.32
6.74
9.78
8.09
1.92
-5.69
-10.52
-9.48
-2.38
7.63
15.78
18.07
13.63
5.07
-3.02
-6.59
-4.34
1.72
7.55
9.35
5.71
-1.77
-9.68
-14.51
-14.65
-10.79
-5.20
-0.41
2.29
3.13
3.37
4.27
6.22
8.44
9.40
7.85
3.84
-0.96
-4.02
-3.45
0.91
6.88
11.09
10.69
5.02
-3.77
-11.92
-16.00
-14.77
-9.71
-3.99
-0.57
-0.46
-2.53
-4.52
-4.65
-2.94
-0.93
-0.53
-2.78
-6.90
-10.70
-11.86
-9.32
-4.04
1.46
4.32
3.03
-1.82
-7.56
-10.81
-9.20
-2.74
5.86
12.55
14.03
9.57
1.71
-5.14
-7.07
-3.02
4.55
11.14
12.77
8.35
0.29
-6.94
-9.33
-5.82
1.22
7.30
8.60
4.15
-3.56
-9.89
-10.87
-5.42
3.81
11.92
14.32
9.35
-0.85
-11.51
-17.67
-16.75
-9.74
-0.45
6.79
9.33
7.40
3.61
1.13
1.87
5.23
8.84
9.85
6.93
1.15
-4.73
-7.59
-5.91
-0.68
5.18
8.48
7.46
2.80
-2.79
-6.24
-5.76
-1.93
2.73
5.19
3.84
-0.52
-5.10
-6.70
-3.64
3.05
10.26
14.40
13.42
8.09
1.38
-3.17
-3.54
-0.44
3.29
4.37
1.26
-4.73
-10.28
-11.83
-7.87
0.07
8.38
13.30
12.90
7.93
1.20
-4.22
-6.57
-6.16
-4.81
-4.50
-5.91
-8.10
-9.00
-6.79
-1.16
6.23
12.44
14.65
11.78
5.24
-1.77
-5.97
-5.77
-2.26
1.51
2.28
-1.16
-7.27
-12.64
-13.95
-10.06
-2.72
4.38
7.64
5.71
0.20
-5.21
-7.12
-4.25
1.78
7.51
9.44
6.43
0.04
-6.19
-8.83
-6.63
-1.07
4.36
6.30
3.37
-2.77
-8.37
-9.87
-5.87
1.82
9.40
12.90
10.63
4.02
-3.30
-7.45
-6.73
-2.23
2.78
4.98
2.86
-2.23
-6.83
-7.59
-3.21
4.59
12.03
15.22
12.51
5.44
-2.22
-6.51
-5.72
-1.14
3.76
5.65
3.09
-2.52
-7.89
-10.05
-7.84
-2.80
2.16
4.26
2.67
-1.18
-4.42
-4.46
-0.59
5.48
10.55
11.71
7.88
0.46
-7.35
-12.24
-12.55
-8.93
-4.05
-0.93
-1.46
-5.33
-10.30
-13.41
-12.67
-8.28
-2.38
2.09
3.01
0.41
-3.60
-6.11
-4.95
-0.18
6.02
10.38
10.67
6.89
1.51
-1.91
-0.67
5.34
13.29
18.80
18.35
11.48
1.18
-7.51
-10.34
-6.19
2.20
9.89
12.63
9.21
1.92
-5.02
-8.00
-6.14
-1.37
2.89
3.87
1.25
-3.16
-6.54
-6.89
-4.23
-0.41
2.03
1.53
-1.46
-4.69
-5.42
-2.24
3.77
9.54
11.42
7.42
-1.48
-11.73
-18.68
-19.29
-13.52
-4.47
3.45
6.81
5.08
0.68
-2.65
-1.90
3.03
9.45
13.33
11.78
4.94
-3.91
-9.93
-9.52
-2.48
7.61
15.30
16.15
9.27
-2.24
-12.87
-17.57
-14.42
-5.29
5.19
12.38
13.95
10.71
5.94
3.14
4.02
7.57
10.91
11.18
7.27
0.56
-6.10
-9.98
-10.10
-7.69
-5.36
-5.31
-7.99
-11.87
-14.24
-13.04
-8.03
-1.13
4.65
6.76
4.78
0.53
-2.89
-3.00
0.57
5.61
8.62
7.02
0.73
-7.38
-13.04
-12.98
-6.90
2.25
9.68
11.55
6.84
-2.00
-10.43
-14.35
-12.07
-5.07
3.08
8.72
9.97
7.47
3.69
1.32
1.64
3.94
6.06
5.74
2.23
-3.10
-7.37
-7.89
-3.66
3.77
11.04
14.74
13.25
7.48
0.40
-4.70
-5.96
-3.83
-0.55
1.37
0.91
-0.85
-1.61
0.67
6.22
12.84
17.05
15.96
9.05
-1.12
-10.20
-14.15
-11.58
-4.51
2.69
5.70
2.57
-5.11
-13.26
-17.63
-16.08
-9.69
-1.86
3.56
4.41
1.22
-3.50
-6.96
-7.56
-5.81
-3.72
-3.36
-5.51
-8.98
-11.35
-10.29
-5.09
2.72
9.97
13.39
11.43
5.10
-2.37
-7.24
-7.23
-2.65
3.77
8.51
9.25
6.24
1.90
-0.60
0.70
5.22
10.37
12.93
10.96
5.04
-2.01
-6.76
-7.11
-3.47
1.40
4.21
2.92
-1.87
-7.43
-10.47
-9.15
-4.11
1.98
5.97
6.16
3.06
-0.82
-2.67
-1.19
2.65
6.17
6.68
3.03
-3.43
-9.73
-12.78
-11.25
-6.36
-1.13
1.33
-0.32
-4.94
-9.52
-10.97
-7.97
-1.76
4.57
7.91
6.75
2.31
-2.33
-3.67
0.11
8.03
16.55
21.26
19.43
11.46
1.00
-6.97
-8.78
-4.12
3.87
10.45
11.94
7.84
0.91
-4.57
-5.55
-1.89
3.67
7.28
6.37
1.18
-5.43
-9.76
-9.51
-5.07
0.70
4.19
3.10
-2.07
-8.20
-11.37
-8.96
-1.41
7.89
14.26
14.46
8.38
-0.54
-7.37
-8.44
-3.35
4.68
10.91
11.70
6.75
-0.88
-6.75
-7.73
-3.94
1.70
5.36
4.82
0.61
-4.47
-7.28
-6.21
-2.13
2.21
3.92
1.47
-4.39
-10.93
-14.88
-13.98
-8.04
0.78
9.00
13.51
12.84
8.13
2.07
-2.40
-3.85
-2.92
-1.62
-1.72
-3.46
-5.30
-5.14
-1.93
3.30
7.68
8.12
3.13
-5.93
-15.35
-20.95
-20.02
-12.91
-2.71
6.35
11.04
10.38
6.01
1.04
-1.82
-1.34
1.64
4.94
6.48
5.33
2.32
-0.74
-2.17
-1.50
0.30
1.38
0.34
-2.82
-6.51
-8.50
-7.34
-3.47
0.65
1.98
-1.47
-8.97
-17.13
-21.40
-18.58
-8.63
4.90
16.52
21.64
18.73
10.21
1.11
-3.80
-2.55
3.34
9.91
13.21
11.62
6.55
1.30
-1.14
0.17
3.69
6.46
6.22
2.82
-1.55
-3.84
-1.87
3.96
10.79
14.77
13.05
5.68
-4.32
-12.30
-14.55
-10.23
-1.90
5.92
9.13
6.13
-1.44
-9.69
-14.45
-13.59
-7.84
-0.25
5.54
7.21
4.83
0.49
-2.99
-3.77
-1.90
0.76
1.85
0.01
-4.22
-8.52
-10.19
-7.74
-1.89
4.74
9.12
9.47
6.25
1.85
-0.83
-0.13
3.38
7.14
8.10
4.65
-2.21
-9.34
-13.14
-11.67
-5.86
1.00
5.12
4.27
-0.96
-7.74
-12.49
-12.91
-9.13
-3.44
1.23
3.03
2.09
0.40
0.42
3.58
9.27
14.86
17.05
13.91
6.24
-2.53
-7.98
-7.21
-0.56
8.25
14.25
13.83
7.00
-2.64
-10.04
-11.51
-7.00
0.17
5.37
5.49
0.80
-5.60
-9.76
-9.38
-5.07
0.10
2.74
1.10
-3.78
-8.73
-10.42
-7.15
-0.01
7.87
12.84
12.88
8.45
2.27
-2.07
-2.22
1.80
7.47
11.34
10.89
6.15
-0.48
-5.50
-6.19
-2.29
4.05
9.41
11.05
8.35
3.01
-2.02
-4.35
-3.50
-1.10
0.19
-1.55
-6.37
-12.20
-16.27
-16.58
-13.23
-8.38
-5.15
-5.60
-9.44
-14.27
-16.74
-14.63
-8.03
0.45
7.15
9.23
6.31
0.66
-3.98
-4.39
0.37
8.20
15.28
18.04
15.14
8.43
1.57
-1.81
-0.29
4.67
9.76
11.84
9.81
5.13
0.76
-0.80
1.06
4.86
8.07
8.66
6.27
2.22
-1.40
-3.00
-2.53
-1.43
-1.81
-4.97
-10.34
-15.42
-17.14
-13.50
-4.91
5.46
13.31
15.27
10.70
2.28
-5.59
-9.00
-6.72
-0.62
5.44
7.88
5.30
-0.94
-7.51
-11.19
-10.43
-6.15
-1.00
2.22
2.23
-0.14
-2.66
-3.17
-1.11
2.15
4.09
2.75
-1.92
-7.62
-11.08
-9.96
-4.26
3.04
7.83
6.95
0.26
-9.05
-16.20
-17.18
-11.18
-0.90
8.73
13.47
11.70
5.39
-1.15
-4.00
-1.64
4.26
10.03
12.11
9.27
3.19
-2.69
-5.09
-2.94
2.23
6.99
8.41
5.63
0.57
-3.26
-3.04
1.64
8.13
12.25
10.58
2.66
-8.42
-17.59
-20.41
-15.58
-5.66
4.12
8.86
6.42
-1.31
-9.56
-13.39
-10.49
-2.49
6.12
10.53
8.51
1.78
-5.10
-7.43
-3.22
5.63
14.26
18.01
14.86
6.68
-1.96
-6.50
-5.10
0.52
6.19
7.82
3.87
-3.97
-11.70
-15.45
-13.57
-7.52
-0.90
2.63
1.53
-2.79
-6.92
-7.50
-3.26
3.96
10.41
12.41
8.63
1.00
-6.39
-9.66
-7.23
-0.81
5.62
8.28
5.65
-0.57
-6.51
-8.36
-4.67
2.90
10.41
13.76
11.19
3.99
-4.17
-9.32
-9.46
-5.35
-0.06
3.04
2.34
-1.06
-4.26
-4.19
0.13
6.87
12.30
12.89
7.58
-1.37
-9.41
-12.32
-8.46
0.11
8.80
13.08
10.87
3.71
-4.32
-8.89
-7.88
-2.33
4.40
8.63
8.48
4.63
-0.47
-3.97
-4.43
-2.28
0.45
1.61
0.17
-3.10
-6.16
-6.79
-4.01
1.23
6.41
8.71
6.71
1.30
-4.54
-7.34
-5.38
0.28
6.24
8.77
6.08
-0.44
-7.14
-10.20
-7.90
-1.62
5.05
8.53
7.38
2.81
-2.30
-5.12
-4.47
-1.32
1.96
3.01
0.88
-3.61
-8.27
-10.69
-9.49
-5.12
0.41
4.50
5.38
3.24
0.04
-1.54
0.09
4.33
8.60
9.85
6.51
-0.39
-7.48
-10.94
-8.67
-1.52
6.81
11.97
11.21
5.16
-2.68
-8.00
-7.85
-2.49
5.07
10.61
11.32
7.01
0.17
-5.65
-7.99
-6.62
-3.45
-1.02
-1.12
-3.58
-6.72
-8.51
-7.67
-4.54
-0.78
1.53
1.23
-1.38
-4.44
-5.44
-2.76
3.49
10.89
16.08
16.17
10.71
2.19
-5.35
-8.21
-5.27
1.51
8.07
10.79
8.27
2.24
-3.67
-6.31
-4.64
-0.41
3.28
3.86
1.07
-3.12
-5.92
-5.37
-1.93
1.99
3.29
0.37
-5.87
-12.23
-15.09
-12.66
-6.04
0.98
4.31
1.51
-6.46
-15.73
-21.51
-20.53
-12.75
-1.34
8.87
14.05
12.88
7.25
1.08
-2.08
-0.58
4.48
10.20
13.38
12.44
8.03
2.50
-1.45
-2.53
-1.29
0.22
0.07
-2.37
-5.73
-7.56
-5.94
-0.80
5.57
9.87
9.32
3.62
-4.80
-11.83
-13.87
-9.72
-1.19
7.70
13.06
12.87
7.99
1.64
-2.68
-2.99
0.14
4.19
6.19
4.84
1.18
-2.08
-2.30
1.19
6.57
10.48
9.98
4.39
-3.91
-10.81
-12.69
-8.48
-0.50
6.98
9.82
6.46
-1.34
-9.57
-14.19
-13.19
-7.54
-0.55
4.37
5.31
2.81
-0.59
-2.23
-0.85
2.81
6.40
7.38
4.70
-0.51
-5.42
-7.18
-4.55
1.16
6.72
8.91
6.35
0.66
-4.52
-5.61
-1.34
6.17
12.68
14.07
8.83
-0.71
-9.76
-13.75
-10.81
-2.84
5.56
9.92
8.29
2.31
-3.74
-5.68
-1.94
5.59
12.51
14.63
10.32
1.66
-6.75
-10.59
-8.17
-1.48
5.03
6.96
2.46
-6.56
-15.61
-20.21
-18.39
-11.77
-4.35
-0.16
-1.07
-5.79
-11.01
-13.38
-11.38
-6.14
-0.62
2.28
1.37
-2.21
-5.60
-5.92
-2.02
4.79
11.32
14.12
11.35
4.10
-3.97
-8.60
-7.14
-0.16
8.85
15.35
16.29
11.88
5.32
0.82
0.98
5.29
10.50
12.73
9.74
2.55
-5.47
-10.56
-10.65
-6.45
-0.93
2.65
2.62
-0.22
-3.11
-2.97
1.74
9.97
18.39
22.98
21.18
13.41
3.17
-4.92
-7.46
-4.31
1.54
5.69
5.01
-0.47
-7.76
-12.86
-13.36
-9.92
-5.68
-4.21
-7.28
-13.67
-20.05
-22.78
-20.07
-12.88
-4.57
0.99
1.39
-3.07
-9.67
-14.60
-14.97
-10.28
-2.49
4.98
9.22
9.26
6.52
3.71
3.10
5.03
7.91
9.23
7.39
2.82
-2.11
-4.45
-2.39
3.55
10.59
15.15
14.88
9.92
2.82
-2.88
-4.63
-2.05
2.89
7.23
8.64
6.80
3.23
0.26
-0.45
0.88
2.55
2.30
-0.97
-6.49
-11.82
-14.11
-11.81
-5.46
2.24
7.85
8.79
4.79
-1.90
-7.62
-9.19
-5.68
1.21
7.98
11.43
10.31
6.06
1.73
0.02
1.73
5.23
7.66
6.64
2.13
-3.53
-6.70
-4.66
2.64
12.27
19.61
20.80
14.79
4.05
-6.78
-13.26
-13.61
-9.35
-4.21
-1.73
-3.09
-6.51
-8.63
-6.86
-1.25
5.31
8.80
6.55
-1.13
-10.83
-17.93
-19.03
-13.81
-5.12
2.82
6.52
5.33
1.33
-2.01
-2.07
1.35
5.87
8.18
6.01
-0.42
-8.27
-13.70
-13.91
-8.86
-1.19
5.16
7.14
4.17
-1.62
-6.75
-8.45
-6.00
-1.10
3.42
5.31
4.17
1.61
0.09
1.32
5.13
9.41
11.39
9.09
2.65
-5.62
-12.32
-14.53
-11.33
-4.28
3.28
7.97
8.19
4.89
0.99
-0.36
2.27
7.65
12.51
13.46
8.98
0.57
-7.95
-12.47
-10.97
-4.59
3.12
8.08
8.09
3.77
-1.93
-5.60
-5.17
-1.05
4.32
7.99
8.11
5.04
0.97
-1.43
-0.83
2.12
5.08
5.48
2.13
-3.93
-9.89
-12.80
-11.21
-6.09
-0.30
3.24
3.07
0.06
-3.09
-3.73
-0.80
4.38
8.78
9.40
5.12
-2.30
-9.00
-11.15
-7.20
1.02
9.24
12.97
10.02
1.62
-8.15
-14.75
-15.62
-11.36
-5.14
-0.67
-0.04
-2.70
-6.09
-7.42
-5.35
-0.66
4.22
6.61
5.13
0.46
-4.94
-8.20
-7.63
-3.65
1.50
5.03
5.19
2.22
-1.83
-4.28
-3.36
0.75
6.04
9.72
9.95
6.95
2.97
0.92
2.71
8.00
14.17
17.75
16.32
9.90
1.18
-5.82
-7.99
-4.85
1.14
6.01
6.69
2.78
-3.27
-7.81
-8.24
-4.64
0.54
3.88
3.25
-1.05
-6.50
-9.82
-9.11
-4.87
0.16
2.76
0.91
-4.83
-11.71
-16.16
-15.60
-9.94
-1.44
6.18
9.83
8.52
3.73
-1.46
-4.30
-3.78
-1.20
1.12
1.15
-1.26
-4.38
-5.60
-2.94
3.32
10.90
16.34
17.04
12.73
5.56
-0.92
-3.96
-2.87
0.43
3.00
2.54
-0.90
-4.98
-6.42
-3.01
4.68
13.43
18.79
17.67
10.10
-0.56
-9.41
-12.67
-9.69
-3.19
2.67
4.51
1.92
-2.72
-5.93
-5.16
-0.69
4.78
7.80
6.24
0.56
-6.44
-11.26
-11.75
-8.08
-2.65
1.36
1.92
-0.74
-4.31
-5.76
-3.29
2.40
8.24
10.55
7.21
-1.03
-10.54
-16.79
-16.70
-10.34
-0.94
6.83
9.33
5.85
-1.24
-8.08
-11.34
-10.18
-6.25
-2.46
-1.10
-2.43
-4.68
-5.21
-2.38
3.44
9.90
13.68
12.47
6.27
-2.34
-9.30
-11.12
-6.57
2.43
11.79
17.39
17.20
12.42
6.58
3.33
4.27
7.92
10.74
9.33
2.65
-7.17
-15.93
-19.59
-16.50
-8.18
1.49
8.33
9.97
6.77
1.40
-2.93
-4.12
-2.35
0.35
1.62
0.20
-3.16
-6.17
-6.63
-3.82
0.75
4.18
3.88
-0.81
-7.98
-14.19
-16.23
-12.94
-5.81
1.93
6.99
8.03
6.11
3.96
4.16
7.50
12.52
16.34
16.45
12.39
6.04
0.56
-1.43
0.51
4.29
6.51
4.66
-1.37
-8.96
-14.15
-14.04
-8.29
0.35
7.63
10.05
6.69
-0.09
-6.21
-8.11
-4.87
1.38
6.55
6.99
1.59
-7.76
-17.08
-22.34
-21.65
-15.92
-8.19
-1.93
0.99
1.04
0.45
1.61
5.44
10.63
14.32
13.88
8.50
0.17
-7.06
-9.43
-5.41
3.10
11.63
15.59
12.84
4.79
-4.34
-9.90
-9.34
-3.54
3.82
8.32
7.47
2.02
-4.70
-8.63
-7.65
-2.61
3.33
6.58
5.39
0.56
-5.00
-8.11
-7.04
-2.49
2.98
6.55
6.69
4.11
1.20
0.51
3.15
8.15
12.77
14.10
10.65
3.40
-4.68
-10.15
-10.95
-7.58
-2.62
0.77
0.84
-1.93
-5.19
-6.26
-3.72
1.65
7.23
10.03
8.44
3.18
-3.01
-6.95
-6.93
-3.65
0.24
1.81
-0.37
-5.36
-10.42
-12.74
-11.07
-6.44
-1.55
1.08
0.47
-2.12
-4.16
-3.44
0.63
6.46
11.15
11.91
7.84
0.32
-7.31
-11.59
-10.58
-4.96
2.22
7.33
8.00
4.46
-0.79
-4.42
-4.21
-0.18
5.49
9.80
10.70
8.09
3.85
0.37
-0.70
0.68
3.00
4.34
3.58
0.98
-1.96
-3.32
-1.96
1.73
5.91
8.00
6.20
0.39
-7.54
-14.60
-18.17
-17.26
-12.99
-7.78
-4.04
-2.86
-3.51
-4.22
-3.32
-0.43
3.13
5.24
4.16
-0.27
-6.36
-11.37
-12.88
-10.02
-3.85
3.01
8.06
9.93
9.09
7.43
6.93
8.34
10.65
11.66
9.41
3.55
-4.18
-10.68
-12.99
-9.92
-2.67
5.72
11.95
14.02
12.13
8.17
4.50
2.47
1.76
0.98
-1.40
-5.67
-10.61
-13.99
-13.84
-9.65
-2.75
4.12
8.33
8.60
5.64
1.70
-0.81
-0.66
1.44
3.45
3.19
-0.13
-5.36
-9.83
-10.96
-7.82
-1.73
4.28
7.15
5.53
0.46
-5.25
-8.63
-8.14
-4.50
0.01
2.67
2.00
-1.40
-5.14
-6.47
-3.83
2.23
9.10
13.63
13.97
10.53
5.92
3.39
4.76
9.18
13.57
14.34
9.75
1.11
-7.74
-12.65
-11.46
-5.06
3.11
9.10
10.49
7.47
2.50
-1.35
-2.19
-0.40
1.91
2.12
-1.18
-7.34
-13.74
-17.21
-15.69
-9.37
-0.77
6.51
9.75
8.50
4.77
1.73
1.61
4.28
7.26
7.29
2.51
-6.21
-15.32
-20.57
-19.40
-12.41
-3.28
3.41
4.73
0.98
-4.60
-7.82
-6.07
0.13
7.51
11.95
10.90
4.89
-2.61
-7.27
-6.30
-0.16
7.76
13.08
12.96
7.79
0.91
-3.55
-3.01
1.84
7.46
9.68
6.15
-2.15
-11.21
-16.49
-15.42
-8.84
-0.55
4.92
4.92
0.07
-6.10
-9.37
-7.25
-0.61
6.84
10.80
8.72
1.43
-7.24
-12.57
-11.65
-4.84
4.34
11.27
12.77
8.74
2.20
-2.77
-3.18
1.07
7.21
11.33
10.56
4.79
-3.02
-8.61
-8.77
-3.30
4.72
10.67
10.95
5.11
-3.79
-10.98
-12.50
-7.49
1.24
8.98
11.68
8.38
1.64
-4.11
-5.49
-2.11
3.23
6.37
4.58
-1.69
-8.98
-12.96
-11.07
-4.14
4.04
8.95
7.96
1.86
-5.55
-9.73
-7.85
-0.63
8.16
13.70
12.62
5.09
-5.36
-13.84
-16.66
-13.32
-6.60
-0.55
1.80
0.32
-2.45
-3.27
-0.44
4.84
9.23
9.24
3.55
-5.84
-14.64
-18.59
-15.89
-8.17
0.23
4.96
3.87
-1.52
-7.16
-8.74
-4.13
5.03
14.34
18.88
15.95
6.62
-4.79
-12.94
-14.41
-9.27
-1.10
5.41
6.87
3.23
-2.52
-6.21
-4.95
1.02
8.80
14.42
15.16
11.03
4.61
-0.57
-1.95
0.73
5.26
8.41
7.70
3.03
-3.41
-8.16
-8.52
-4.15
2.67
8.24
9.56
6.08
0.03
-4.88
-5.56
-1.40
5.34
10.79
11.73
7.49
0.35
-5.72
-7.33
-3.59
3.26
9.21
10.74
6.87
-0.18
-6.42
-8.38
-5.18
0.96
6.19
7.34
3.87
-1.85
-6.02
-5.95
-1.62
4.17
7.58
6.00
-0.29
-8.32
-14.32
-15.69
-12.62
-7.68
-4.40
-5.13
-9.74
-15.62
-19.09
-17.58
-10.77
-1.09
7.73
12.56
12.27
8.31
3.71
1.41
2.52
5.89
8.77
8.50
4.10
-3.02
-9.81
-13.08
-11.12
-4.66
3.59
10.19
12.75
11.05
6.95
3.21
1.74
2.51
3.59
2.66
-1.37
-7.39
-12.56
-13.91
-10.19
-2.85
4.70
8.85
7.82
2.71
-3.16
-6.31
-5.12
-0.66
3.92
5.49
2.93
-1.98
-5.98
-6.04
-1.54
5.22
10.42
10.84
5.88
-2.15
-9.34
-12.43
-10.42
-5.00
0.57
3.49
2.81
0.05
-2.15
-1.48
2.42
7.65
11.18
10.36
4.68
-3.90
-11.71
-15.29
-12.97
-5.81
3.00
9.69
11.76
9.35
4.85
1.73
2.41
6.90
12.85
16.74
16.16
11.40
5.15
0.92
0.71
3.66
6.60
6.07
0.65
-8.09
-16.34
-20.23
-17.97
-10.84
-2.42
3.31
4.15
0.64
-4.34
-7.33
-6.34
-1.98
3.01
5.44
3.54
-1.83
-7.80
-11.03
-9.91
-5.40
-0.47
1.77
-0.13
-4.98
-9.78
-11.36
-8.18
-1.09
7.11
13.07
14.71
12.09
7.39
3.62
2.97
5.60
9.43
11.47
9.57
3.81
-3.37
-8.49
-8.90
-4.41
2.58
8.27
9.55
5.83
-0.57
-5.77
-6.52
-2.21
4.66
9.91
10.20
5.19
-2.30
-7.88
-8.44
-4.11
1.86
5.16
3.14
-3.51
-11.15
-15.42
-13.88
-7.44
0.28
5.09
4.68
-0.15
-6.13
-9.61
-8.74
-4.48
-0.08
1.12
-2.35
-8.95
-14.99
-16.57
-11.88
-2.46
7.66
13.98
13.81
7.77
-0.64
-6.88
-7.72
-2.82
5.15
12.03
14.52
11.82
6.07
0.87
-0.82
1.65
6.26
9.78
9.71
5.94
0.76
-2.54
-1.65
3.28
9.64
13.86
13.45
8.46
1.45
-3.89
-4.92
-1.58
3.54
6.73
5.24
-0.84
-8.65
-14.07
-14.11
-8.86
-1.36
4.08
4.43
-0.37
-7.26
-11.91
-11.41
-5.73
1.99
7.49
7.74
2.73
-4.61
-10.18
-10.91
-6.73
-0.29
4.43
4.45
-0.63
-8.41
-15.01
-17.16
-13.74
-6.39
1.67
7.27
8.81
7.04
4.33
3.32
5.18
8.88
11.86
11.60
7.24
0.31
-6.11
-9.14
-7.80
-3.68
-0.01
0.29
-3.47
-9.44
-14.20
-14.79
-10.47
-3.10
3.97
7.95
8.10
6.06
4.65
6.07
10.42
15.35
17.38
14.13
5.74
-4.72
-12.83
-15.14
-11.14
-3.49
3.33
5.49
1.88
-5.44
-12.50
-15.46
-12.83
-5.97
1.86
7.32
8.88
7.49
5.79
6.29
9.82
14.72
17.73
16.02
8.95
-1.22
-10.21
-13.93
-10.70
-2.19
7.40
13.66
14.09
9.42
2.81
-1.92
-2.68
0.00
3.49
4.85
2.85
-1.44
-5.50
-6.94
-5.20
-1.85
0.45
-0.37
-4.34
-9.59
-13.33
-13.59
-10.21
-4.92
-0.42
1.24
-0.51
-4.30
-7.60
-7.93
-4.05
3.04
10.52
15.09
14.60
9.52
2.61
-2.42
-3.21
-0.05
4.40
6.76
5.21
0.70
-3.80
-5.29
-2.82
1.78
5.08
4.11
-1.55
-9.61
-16.30
-18.44
-15.01
-7.70
0.10
5.23
6.11
3.60
0.25
-1.31
0.28
4.27
8.25
9.67
7.17
1.50
-4.93
-9.35
-10.22
-7.96
-4.62
-2.63
-3.34
-6.25
-9.45
-10.61
-8.34
-3.02
3.53
8.79
11.07
10.43
8.56
7.74
9.40
13.01
16.30
16.75
13.10
6.50
0.03
-3.21
-1.86
2.76
7.17
7.99
3.75
-4.22
-12.37
-16.93
-15.87
-9.85
-1.79
4.57
6.66
4.23
-0.69
-4.94
-6.18
-4.16
-0.67
1.58
0.86
-2.31
-5.50
-6.06
-2.91
2.44
6.68
6.71
1.65
-6.39
-13.33
-15.39
-11.01
-1.83
8.02
14.09
13.75
7.47
-1.47
-8.67
-10.91
-7.78
-1.68
3.55
4.91
1.87
-3.54
-8.04
-9.28
-7.09
-3.41
-0.85
-1.02
-3.59
-6.55
-7.68
-5.64
-0.74
5.41
10.57
13.22
13.03
11.09
9.08
8.45
9.51
11.27
12.08
10.65
7.15
3.09
0.58
0.85
3.45
6.27
6.79
3.67
-2.27
-8.27
-11.13
-8.91
-2.28
5.70
10.94
10.45
4.16
-4.92
-12.23
-14.20
-10.29
-3.23
2.56
3.70
-0.18
-6.40
-11.06
-11.54
-8.11
-3.49
-0.89
-2.05
-6.09
-10.16
-11.21
-7.72
-0.51
7.67
13.45
14.51
10.72
4.23
-1.72
-4.37
-3.02
0.74
3.94
4.16
1.02
-3.61
-6.73
-6.33
-2.62
1.88
4.03
1.93
-3.58
-9.38
-11.73
-8.43
-0.25
9.31
15.75
15.92
9.83
0.74
-6.74
-9.07
-5.85
0.20
4.89
5.01
0.23
-6.84
-12.38
-13.51
-9.93
-3.79
1.74
4.34
3.65
1.29
-0.29
0.62
4.18
8.72
11.79
11.46
7.68
2.48
-0.99
-0.44
4.18
10.17
13.49
11.10
3.05
-7.28
-15.01
-16.41
-11.31
-3.05
3.58
5.03
1.13
-5.16
-9.66
-9.52
-4.75
2.03
7.35
8.86
6.45
2.23
-0.98
-1.24
1.53
5.47
7.87
6.61
1.63
-4.91
-9.48
-9.32
-3.96
4.04
10.34
11.08
5.27
-4.44
-13.21
-16.42
-12.56
-3.75
5.36
10.31
9.31
4.05
-1.58
-3.89
-1.60
3.48
7.77
8.23
4.27
-1.90
-6.60
-7.06
-3.01
3.07
7.50
7.38
2.38
-5.17
-11.47
-13.32
-9.80
-2.69
4.64
8.83
8.39
4.50
0.10
-1.59
0.73
5.86
10.69
11.92
8.34
1.62
-4.68
-7.18
-4.93
-0.09
3.23
1.49
-5.97
-16.49
-25.24
-27.98
-23.31
-13.44
-2.92
3.87
4.94
1.63
-2.44
-3.52
0.15
7.31
14.64
18.60
17.57
12.81
7.53
5.11
6.86
11.20
14.75
14.20
8.55
-0.28
-8.58
-12.99
-12.60
-9.29
-6.56
-7.37
-12.01
-18.23
-22.33
-21.46
-15.15
-5.65
3.30
8.54
8.98
6.09
3.07
3.08
7.58
15.36
23.11
27.11
25.13
17.95
8.82
1.90
-0.23
1.87
5.09
5.69
1.87
-5.07
-11.48
-13.71
-10.69
-4.47
0.79
1.36
-3.69
-12.03
-19.33
-21.80
-17.94
-9.32
0.49
7.78
10.38
8.60
4.73
1.75
1.71
4.53
8.26
10.30
9.10
5.13
0.81
-1.09
0.95
5.90
10.77
12.27
8.94
2.14
-4.49
-7.19
-4.40
2.18
8.55
10.71
6.89
-1.21
-9.48
-13.73
-12.12
-6.35
-0.58
1.15
-2.58
-9.57
-15.44
-16.30
-11.25
-3.01
3.84
5.53
1.38
-5.75
-11.34
-11.97
-7.26
-0.07
5.45
6.34
2.60
-3.04
-6.80
-6.27
-1.60
4.51
8.62
8.50
4.34
-1.46
-5.91
-7.11
-5.28
-2.41
-0.98
-2.28
-5.85
-9.69
-11.38
-9.29
-3.46
4.32
11.39
15.25
14.65
10.15
3.83
-1.59
-3.99
-2.85
0.45
3.43
3.95
1.55
-2.07
-4.01
-1.84
4.62
12.97
19.22
20.20
15.43
7.50
0.79
-1.31
1.66
6.87
10.06
8.34
2.02
-5.53
-10.11
-9.26
-3.85
2.41
5.16
2.16
-5.38
-13.53
-17.85
-16.10
-9.44
-1.76
2.56
1.21
-4.82
-11.90
-15.78
-13.95
-6.96
1.97
8.69
10.50
7.20
1.11
-4.34
-6.52
-4.81
-0.79
2.82
3.56
0.78
-4.06
-8.23
-9.36
-6.93
-2.63
0.59
0.37
-3.29
-7.99
-10.28
-7.82
-1.02
7.03
12.21
11.88
6.42
-0.91
-5.87
-5.58
-0.02
8.05
14.84
17.50
15.41
10.27
4.76
1.11
-0.04
0.49
1.06
0.37
-1.62
-3.66
-3.85
-0.92
4.93
11.85
17.13
18.38
14.84
7.92
0.45
-4.56
-5.57
-3.15
0.26
1.96
0.53
-3.03
-6.06
-5.87
-1.57
4.98
10.17
10.69
5.71
-2.36
-9.18
-11.01
-6.97
0.31
6.21
6.90
1.52
-7.21
-14.67
-16.91
-12.83
-4.84
2.57
5.46
2.57
-4.05
-10.26
-12.25
-8.76
-1.69
5.08
7.97
5.74
0.22
-4.82
-5.94
-1.93
5.43
12.50
15.87
14.17
8.98
3.79
2.03
4.92
10.72
15.59
15.90
10.34
0.92
-8.25
-13.39
-13.09
-9.17
-5.39
-5.09
-8.99
-14.89
-19.01
-18.39
-12.72
-4.56
2.18
4.45
1.68
-4.09
-9.41
-11.53
-9.75
-5.85
-2.88
-3.25
-7.29
-12.75
-16.18
-14.70
-7.86
1.91
10.48
14.07
11.38
4.32
-2.84
-5.68
-2.19
6.31
15.76
21.70
21.72
16.77
10.54
7.24
9.07
14.94
21.19
23.75
20.69
13.31
5.32
0.45
0.16
2.87
5.05
3.52
-2.54
-10.97
-17.95
-20.22
-16.96
-10.38
-4.26
-1.89
-3.92
-8.26
-11.23
-9.79
-3.56
5.05
12.03
13.99
10.14
2.61
-4.58
-7.91
-6.22
-1.30
3.35
4.58
1.51
-3.98
-8.30
